I,II,III,aVR,aVL,aVF,V1,V2,V3,V4,V5,V6
322,419,97,-370,112,258,273,732,614,546,595,400
322,419,97,-370,112,258,273,732,614,546,595,400
322,419,97,-370,112,258,273,732,614,546,595,400
322,419,97,-370,112,258,273,732,614,546,595,400
317,419,102,-368,107,261,268,707,595,531,590,390
312,419,107,-366,102,263,263,692,585,527,585,390
307,419,112,-363,97,265,258,678,575,522,580,390
302,419,117,-361,92,268,253,663,566,517,575,390
292,414,122,-353,85,268,248,639,546,492,551,375
283,409,126,-346,78,268,244,614,527,478,536,370
273,405,131,-339,70,268,239,590,507,463,522,366
263,400,136,-331,63,268,234,566,488,448,507,361
283,385,102,-334,90,244,214,522,458,419,483,331
292,380,87,-336,102,234,204,488,429,390,458,312
302,375,73,-339,114,224,195,453,400,361,434,292
312,370,58,-341,126,214,185,419,370,331,409,273
292,361,68,-326,112,214,175,390,351,307,385,263
283,361,78,-322,102,219,175,370,331,292,370,253
273,361,87,-317,92,224,175,351,312,278,356,244
263,361,97,-312,82,229,175,331,292,263,341,234
244,341,97,-292,73,219,156,297,263,229,317,214
234,322,87,-278,73,204,146,263,234,204,292,195
224,302,78,-263,73,190,136,229,204,180,268,175
214,283,68,-248,73,175,126,195,175,156,244,156
195,273,78,-234,58,175,126,180,161,141,224,146
185,273,87,-229,48,180,126,165,146,126,214,136
175,273,97,-224,39,185,126,151,131,112,204,126
165,273,107,-219,29,190,126,136,117,97,195,117
146,244,97,-195,24,170,117,107,97,73,170,102
136,224,87,-180,24,156,107,87,78,58,156,87
126,204,78,-165,24,141,97,68,58,43,141,73
117,185,68,-151,24,126,87,48,39,29,126,58
131,195,63,-163,34,129,97,43,34,24,117,48
136,204,68,-170,34,136,97,39,29,19,117,48
141,214,73,-178,34,143,97,34,24,14,117,48
146,224,78,-185,34,151,97,29,19,9,117,48
131,204,73,-168,29,139,92,4,4,-4,102,29
117,185,68,-151,24,126,87,-9,-9,-19,87,19
102,165,63,-134,19,114,82,-24,-24,-34,73,9
87,146,58,-117,14,102,78,-39,-39,-48,58,0
68,141,73,-104,-2,107,68,-43,-48,-53,48,-9
58,136,78,-97,-9,107,68,-48,-48,-58,48,-9
48,131,82,-90,-17,107,68,-53,-48,-63,48,-9
39,126,87,-82,-24,107,68,-58,-48,-68,48,-9
48,136,87,-92,-19,112,68,-68,-58,-78,43,-9
58,136,78,-97,-9,107,68,-68,-58,-78,39,-9
68,136,68,-102,0,102,68,-68,-58,-78,34,-9
78,136,58,-107,9,97,68,-68,-58,-78,29,-9
78,146,68,-112,4,107,68,-68,-48,-68,39,-9
78,156,78,-117,0,117,68,-68,-48,-68,39,-9
78,165,87,-122,-4,126,68,-68,-48,-68,39,-9
78,175,97,-126,-9,136,68,-68,-48,-68,39,-9
68,151,82,-109,-7,117,68,-78,-53,-78,34,-14
58,136,78,-97,-9,107,68,-78,-58,-78,29,-19
48,122,73,-85,-12,97,68,-78,-63,-78,24,-24
39,107,68,-73,-14,87,68,-78,-68,-78,19,-29
53,117,63,-85,-4,90,68,-73,-58,-78,29,-29
58,117,58,-87,0,87,68,-68,-58,-78,29,-29
63,117,53,-90,4,85,68,-63,-58,-78,29,-29
68,117,48,-92,9,82,68,-58,-58,-78,29,-29
58,97,39,-78,9,68,68,-63,-63,-82,14,-39
48,87,39,-68,4,63,68,-68,-68,-87,9,-39
39,78,39,-58,0,58,68,-73,-73,-92,4,-39
29,68,39,-48,-4,53,68,-78,-78,-97,0,-39
34,82,48,-58,-7,65,58,-68,-73,-92,14,-24
39,97,58,-68,-9,78,58,-68,-68,-87,19,-19
43,112,68,-78,-12,90,58,-68,-63,-82,24,-14
48,126,78,-87,-14,102,58,-68,-58,-78,29,-9
53,131,78,-92,-12,104,63,-68,-68,-68,19,0
58,136,78,-97,-9,107,68,-68,-68,-68,19,0
63,141,78,-102,-7,109,73,-68,-68,-68,19,0
68,146,78,-107,-4,112,78,-68,-68,-68,19,0
82,161,78,-122,2,119,78,-58,-58,-78,29,0
87,165,78,-126,4,122,78,-58,-58,-78,29,0
92,170,78,-131,7,124,78,-58,-58,-78,29,0
97,175,78,-136,9,126,78,-58,-58,-78,29,0
82,156,73,-119,4,114,78,-68,-68,-78,24,-4
68,136,68,-102,0,102,78,-68,-68,-78,19,-9
53,117,63,-85,-4,90,78,-68,-68,-78,14,-14
39,97,58,-68,-9,78,78,-68,-68,-78,9,-19
43,102,58,-73,-7,80,87,-58,-68,-87,0,-9
48,107,58,-78,-4,82,87,-58,-68,-87,0,-9
53,112,58,-82,-2,85,87,-58,-68,-87,0,-9
58,117,58,-87,0,87,87,-58,-68,-87,0,-9
53,112,58,-82,-2,85,87,-58,-78,-97,-9,-19
48,107,58,-78,-4,82,87,-58,-78,-97,-9,-19
43,102,58,-73,-7,80,87,-58,-78,-97,-9,-19
39,97,58,-68,-9,78,87,-58,-78,-97,-9,-19
39,97,58,-68,-9,78,82,-58,-78,-97,-19,-19
39,97,58,-68,-9,78,78,-58,-78,-97,-19,-19
39,97,58,-68,-9,78,73,-58,-78,-97,-19,-19
39,97,58,-68,-9,78,68,-58,-78,-97,-19,-19
34,87,53,-61,-9,70,73,-48,-78,-97,-29,-29
29,87,58,-58,-14,73,78,-48,-78,-97,-29,-29
24,87,63,-56,-19,75,82,-48,-78,-97,-29,-29
19,87,68,-53,-24,78,87,-48,-78,-97,-29,-29
29,87,58,-58,-14,73,82,-48,-78,-107,-39,-34
29,87,58,-58,-14,73,78,-48,-78,-107,-39,-39
29,87,58,-58,-14,73,73,-48,-78,-107,-39,-43
29,87,58,-58,-14,73,68,-48,-78,-107,-39,-48
29,97,68,-63,-19,82,82,-39,-68,-102,-29,-43
29,97,68,-63,-19,82,87,-39,-68,-97,-29,-39
29,97,68,-63,-19,82,92,-39,-68,-92,-29,-34
29,97,68,-63,-19,82,97,-39,-68,-87,-29,-29
39,107,68,-73,-14,87,82,-39,-68,-78,-19,-24
48,107,58,-78,-4,82,78,-39,-68,-78,-19,-19
58,107,48,-82,4,78,73,-39,-68,-78,-19,-14
68,107,39,-87,14,73,68,-39,-68,-78,-19,-9
53,126,73,-90,-9,100,82,-29,-63,-63,-14,4
48,136,87,-92,-19,112,87,-29,-58,-58,-9,9
43,146,102,-95,-29,124,92,-29,-53,-53,-4,14
39,156,117,-97,-39,136,97,-29,-48,-48,0,19
39,151,112,-95,-36,131,82,-34,-58,-58,-4,14
39,146,107,-92,-34,126,78,-39,-58,-58,-9,9
39,141,102,-90,-31,122,73,-43,-58,-58,-14,4
39,136,97,-87,-29,117,68,-48,-58,-58,-19,0
48,141,92,-95,-21,117,78,-48,-58,-48,-19,9
48,146,97,-97,-24,122,78,-48,-58,-48,-19,9
48,151,102,-100,-26,126,78,-48,-58,-48,-19,9
48,156,107,-102,-29,131,78,-48,-58,-48,-19,9
48,146,97,-97,-24,122,87,-58,-48,-39,-9,19
48,146,97,-97,-24,122,87,-58,-48,-39,-9,19
48,146,97,-97,-24,122,87,-58,-48,-39,-9,19
48,146,97,-97,-24,122,87,-58,-48,-39,-9,19
53,165,112,-109,-29,139,92,-48,-39,-29,-9,19
58,175,117,-117,-29,146,97,-48,-39,-29,-9,19
63,185,122,-124,-29,153,102,-48,-39,-29,-9,19
68,195,126,-131,-29,161,107,-48,-39,-29,-9,19
53,165,112,-109,-29,139,97,-53,-53,-39,-29,0
39,146,107,-92,-34,126,87,-58,-58,-48,-39,-9
24,126,102,-75,-39,114,78,-63,-63,-58,-48,-19
9,107,97,-58,-43,102,68,-68,-68,-68,-58,-29
9,122,112,-65,-51,117,82,-53,-58,-48,-48,-19
9,126,117,-68,-53,122,87,-48,-48,-39,-39,-9
9,131,122,-70,-56,126,92,-43,-39,-29,-29,0
9,136,126,-73,-58,131,97,-39,-29,-19,-19,9
24,136,112,-80,-43,124,87,-43,-34,-24,-34,4
29,136,107,-82,-39,122,87,-48,-39,-29,-39,0
34,136,102,-85,-34,119,87,-53,-43,-34,-43,-4
39,136,97,-87,-29,117,87,-58,-48,-39,-48,-9
34,161,126,-97,-46,143,102,-48,-29,-19,-39,0
29,175,146,-102,-58,161,107,-39,-19,-9,-29,9
24,190,165,-107,-70,178,112,-29,-9,0,-19,19
19,204,185,-112,-82,195,117,-19,0,9,-9,29
29,214,185,-122,-78,200,112,-29,-9,19,-9,29
39,214,175,-126,-68,195,107,-29,-9,19,-9,29
48,214,165,-131,-58,190,102,-29,-9,19,-9,29
58,214,156,-136,-48,185,97,-29,-9,19,-9,29
68,234,165,-151,-48,200,102,-24,0,29,-4,43
78,244,165,-161,-43,204,107,-14,4,29,0,43
78,253,175,-165,-48,214,107,-9,0,29,4,48
68,239,170,-153,-51,204,112,-4,4,29,0,48
39,204,165,-122,-63,185,102,-9,-4,24,0,39
43,200,156,-122,-56,178,87,-19,-9,19,0,34
48,195,146,-122,-48,170,78,-34,-14,19,0,34
43,214,170,-129,-63,192,73,-43,-14,19,4,39
43,209,165,-126,-61,187,63,-53,-19,19,0,43
43,204,161,-124,-58,183,48,-63,-29,14,-9,43
29,195,165,-112,-68,180,43,-73,-34,4,-24,39
29,185,156,-107,-63,170,43,-87,-43,-9,-34,29
43,180,136,-112,-46,158,29,-107,-48,-14,-34,14
63,190,126,-126,-31,158,9,-117,-73,-29,-53,4
78,200,122,-139,-21,161,4,-126,-87,-34,-58,4
92,209,117,-151,-12,163,-4,-122,-97,-39,-58,4
107,200,92,-153,7,146,-4,-126,-107,-48,-63,-9
117,204,87,-161,14,146,0,-117,-92,-39,-63,0
117,209,92,-163,12,151,4,-107,-82,-34,-58,-4
112,209,97,-161,7,153,9,-112,-78,-29,-58,-4
102,180,78,-141,12,129,0,-112,-87,-29,-58,-4
97,165,68,-131,14,117,0,-112,-92,-34,-58,-14
97,156,58,-126,19,107,0,-112,-92,-34,-63,-14
92,146,53,-119,19,100,4,-112,-92,-34,-63,-14
102,151,48,-126,26,100,-4,-112,-92,-43,-68,-4
112,170,58,-141,26,114,-4,-107,-87,-43,-73,-4
126,175,48,-151,39,112,0,-107,-87,-39,-78,4
136,180,43,-158,46,112,4,-107,-82,-34,-73,4
112,180,68,-146,21,124,19,-102,-73,-29,-58,9
102,170,68,-136,17,119,19,-97,-78,-24,-58,14
82,170,87,-126,-2,129,19,-92,-78,-24,-63,4
82,170,87,-126,-2,129,19,-87,-78,-24,-63,9
82,156,73,-119,4,114,19,-97,-78,-24,-63,9
82,156,73,-119,4,114,19,-92,-78,-29,-63,9
78,156,78,-117,0,117,24,-92,-82,-29,-63,9
73,151,78,-112,-2,114,24,-97,-82,-34,-78,-4
53,122,68,-87,-7,95,14,-107,-97,-48,-92,-19
39,112,73,-75,-17,92,9,-112,-107,-53,-92,-34
19,112,92,-65,-36,102,9,-117,-107,-63,-102,-39
24,112,87,-68,-31,100,9,-117,-107,-68,-102,-43
29,102,73,-65,-21,87,9,-126,-117,-78,-107,-48
34,102,68,-68,-17,85,4,-126,-117,-78,-112,-53
39,92,53,-65,-7,73,4,-117,-117,-78,-112,-58
43,82,39,-63,2,61,9,-117,-112,-73,-117,-58
29,73,43,-51,-7,58,9,-117,-122,-78,-117,-58
24,63,39,-43,-7,51,4,-117,-122,-78,-117,-63
19,63,43,-41,-12,53,0,-117,-126,-87,-122,-73
14,63,48,-39,-17,56,0,-122,-126,-87,-122,-78
29,87,58,-58,-14,73,4,-112,-122,-82,-122,-68
34,97,63,-65,-14,80,4,-112,-117,-87,-117,-68
34,107,73,-70,-19,90,4,-112,-112,-68,-107,-68
53,122,68,-87,-7,95,14,-107,-102,-63,-97,-68
39,117,78,-78,-19,97,24,-97,-102,-73,-107,-78
24,92,68,-58,-21,80,19,-97,-102,-73,-112,-78
19,87,68,-53,-24,78,19,-97,-107,-78,-112,-78
19,82,63,-51,-21,73,19,-97,-107,-82,-112,-78
4,68,63,-36,-29,65,4,-112,-117,-92,-122,-87
9,63,53,-36,-21,58,0,-117,-117,-92,-126,-87
4,58,53,-31,-24,56,-4,-122,-112,-92,-126,-87
-4,53,58,-24,-31,56,-4,-126,-112,-87,-122,-87
-4,63,68,-29,-36,65,9,-112,-107,-78,-117,-78
4,82,78,-43,-36,80,14,-107,-102,-78,-112,-78
0,78,78,-39,-39,78,19,-102,-97,-78,-107,-78
9,68,58,-39,-24,63,19,-97,-97,-82,-102,-82
-4,63,68,-29,-36,65,14,-102,-107,-97,-112,-92
-4,58,63,-26,-34,61,14,-107,-102,-97,-112,-92
-9,58,68,-24,-39,63,9,-112,-102,-92,-112,-87
-14,58,73,-21,-43,65,9,-112,-102,-87,-112,-82
24,102,78,-63,-26,90,19,-102,-92,-82,-102,-82
34,112,78,-73,-21,95,39,-73,-73,-63,-82,-63
34,102,68,-68,-17,85,48,-63,-68,-53,-63,-63
-4,92,97,-43,-51,95,48,-73,-78,-68,-82,-82
-24,82,107,-29,-65,95,73,-53,-53,-48,-73,-78
-43,73,117,-14,-80,95,87,-39,-48,-63,-78,-87
-63,92,156,-14,-109,124,97,-19,-34,-63,-87,-92
-48,92,141,-21,-95,117,146,43,4,-24,-73,-78
-48,92,141,-21,-95,117,185,107,68,9,-39,-63
-78,136,214,-29,-146,175,234,180,141,82,19,-14
-58,180,239,-61,-148,209,283,229,224,170,92,43
-19,200,219,-90,-119,209,268,248,244,204,136,63
19,219,200,-119,-90,209,244,278,278,244,175,97
82,200,117,-141,-17,158,209,331,326,297,253,156
151,219,68,-185,41,143,136,341,361,366,336,209
214,268,53,-241,80,161,63,370,409,468,448,317
322,317,-4,-319,163,156,-24,385,478,580,580,444
463,419,-43,-441,253,187,-112,390,517,688,727,580
605,512,-92,-558,348,209,-200,361,536,790,858,697
663,531,-131,-597,397,200,-336,239,473,790,902,746
717,575,-141,-646,429,217,-488,92,366,756,917,780
775,585,-190,-680,483,197,-600,9,322,756,966,829
805,556,-248,-680,527,153,-732,-78,229,707,946,829
849,536,-312,-692,580,112,-854,-214,53,575,849,761
878,463,-414,-671,646,24,-936,-375,-165,366,663,624
834,326,-507,-580,671,-90,-990,-551,-419,92,400,405
790,195,-595,-492,692,-200,-1034,-727,-653,-180,126,180
766,43,-722,-405,744,-339,-1068,-907,-854,-405,-97,-14
658,-68,-727,-295,692,-397,-1068,-1083,-1015,-614,-317,-175
546,-117,-663,-214,605,-390,-1024,-1210,-1137,-800,-517,-336
434,-190,-624,-122,529,-407,-985,-1342,-1273,-976,-707,-492
326,-224,-551,-51,439,-387,-912,-1464,-1356,-1093,-854,-580
253,-224,-478,-14,366,-351,-810,-1449,-1337,-1102,-883,-590
175,-239,-414,31,295,-326,-741,-1342,-1254,-1054,-858,-600
136,-229,-366,46,251,-297,-678,-1259,-1190,-1015,-849,-600
122,-248,-370,63,246,-309,-614,-1215,-1151,-980,-819,-585
53,-283,-336,114,195,-309,-595,-1166,-1107,-951,-800,-590
4,-253,-258,124,131,-256,-546,-1073,-1019,-893,-766,-580
-19,-204,-185,112,82,-195,-468,-966,-902,-800,-688,-527
-58,-136,-78,97,9,-107,-375,-858,-795,-702,-610,-468
-73,-58,14,65,-43,-21,-278,-712,-663,-590,-512,-380
-48,9,58,19,-53,34,-209,-590,-551,-492,-429,-317
-29,63,92,-17,-61,78,-161,-497,-458,-414,-370,-258
-9,87,97,-39,-53,92,-97,-390,-356,-317,-278,-200
19,82,63,-51,-21,73,-53,-287,-268,-239,-214,-175
58,131,73,-95,-7,102,-19,-204,-200,-180,-170,-141
53,122,68,-87,-7,95,9,-151,-146,-146,-136,-126
-39,14,53,12,-46,34,-14,-146,-141,-151,-156,-165
-97,-24,73,61,-85,24,-9,-126,-131,-151,-161,-170
-82,-14,68,48,-75,26,14,-82,-87,-117,-122,-122
-68,29,97,19,-82,63,39,-48,-48,-78,-78,-82
-29,87,117,-29,-73,102,78,-9,-14,-29,-39,-48
9,87,78,-48,-34,82,92,9,4,-14,-29,-48
9,102,92,-56,-41,97,73,-9,-14,-43,-48,-78
-9,82,92,-36,-51,87,68,-9,-4,-43,-58,-78
-19,73,92,-26,-56,82,68,4,4,-39,-48,-82
-29,63,92,-17,-61,78,73,9,9,-34,-43,-82
-34,53,87,-9,-61,70,82,19,9,-24,-34,-63
-43,58,102,-7,-73,80,82,24,14,-14,-29,-48
-53,68,122,-7,-87,95,87,24,19,-9,-24,-48
-63,58,122,2,-92,90,87,29,24,-9,-24,-53
-78,39,117,19,-97,78,97,43,24,-9,-24,-58
-68,43,112,12,-90,78,107,48,34,0,-19,-53
-53,48,102,2,-78,75,107,58,43,4,-9,-53
-39,53,92,-7,-65,73,112,63,53,19,4,-39
-9,68,78,-29,-43,73,112,63,58,19,19,-34
-9,87,97,-39,-53,92,122,82,68,48,39,-19
-9,107,117,-48,-63,112,122,87,73,48,39,-14
-9,102,112,-46,-61,107,122,92,78,43,29,-9
-19,97,117,-39,-68,107,122,102,82,43,29,-4
-14,82,97,-34,-56,90,117,102,73,34,29,-14
-14,82,97,-34,-56,90,112,97,82,34,29,-19
-9,87,97,-39,-53,92,112,107,87,48,34,-24
-4,92,97,-43,-51,95,107,107,97,48,39,-24
14,107,92,-61,-39,100,117,117,97,68,39,-4
14,107,92,-61,-39,100,117,122,97,68,48,-4
14,107,92,-61,-39,100,117,122,97,68,48,-4
19,97,78,-58,-29,87,117,126,102,68,48,-4
24,102,78,-63,-26,90,112,122,102,63,58,-9
24,97,73,-61,-24,85,107,126,102,63,58,-14
19,92,73,-56,-26,82,117,136,117,73,58,-14
19,92,73,-56,-26,82,112,146,126,78,73,-14
14,112,97,-63,-41,104,126,170,141,97,87,-4
9,126,117,-68,-53,122,131,185,156,117,102,9
0,141,141,-70,-70,141,131,195,161,117,102,14
-9,136,146,-63,-78,141,136,200,170,117,102,34
-9,117,126,-53,-68,122,136,195,165,117,102,24
-4,107,112,-51,-58,109,126,195,165,117,102,14
4,107,102,-56,-48,104,126,209,185,117,107,14
9,117,107,-63,-48,112,126,229,200,126,122,24
9,126,117,-68,-53,122,122,224,200,131,122,34
19,141,122,-80,-51,131,126,239,209,141,131,43
19,151,131,-85,-56,141,136,248,214,146,141,53
4,156,151,-80,-73,153,136,258,224,156,156,53
-4,151,156,-73,-80,153,131,268,234,165,165,53
0,146,146,-73,-73,146,131,278,244,170,170,53
9,141,131,-75,-61,136,136,292,258,180,180,53
14,136,122,-75,-53,129,136,307,278,190,185,63
39,161,122,-100,-41,141,151,336,297,219,200,82
58,185,126,-122,-34,156,165,361,312,234,224,97
82,219,136,-151,-26,178,170,375,326,248,234,102
107,234,126,-170,-9,180,180,385,336,258,244,112
102,219,117,-161,-7,168,180,400,346,278,263,122
97,214,117,-156,-9,165,180,414,356,283,268,117
102,214,112,-158,-4,163,180,439,385,302,283,122
102,224,122,-163,-9,173,180,458,400,312,292,122
97,224,126,-161,-14,175,185,473,414,326,312,136
92,239,146,-165,-26,192,190,497,439,341,322,146
97,253,156,-175,-29,204,195,522,448,361,336,161
102,258,156,-180,-26,207,195,541,463,370,346,175
102,258,156,-180,-26,207,200,556,492,395,366,200
107,258,151,-183,-21,204,200,570,502,405,380,204
117,258,141,-187,-12,200,200,585,512,414,395,209
126,268,141,-197,-7,204,204,610,541,434,429,224
136,292,156,-214,-9,224,209,639,556,444,434,234
151,307,156,-229,-2,231,214,649,570,463,453,248
165,331,165,-248,0,248,224,663,585,478,473,263
165,336,170,-251,-2,253,224,668,590,497,483,278
180,336,156,-258,12,246,224,688,600,512,502,292
190,336,146,-263,21,241,224,697,610,527,517,302
190,336,146,-263,21,241,219,712,624,536,517,312
195,341,146,-268,24,244,219,722,644,546,527,326
195,341,146,-268,24,244,219,727,644,541,527,326
190,346,156,-268,17,251,214,727,649,546,531,331
190,356,165,-273,12,261,214,727,653,551,541,336
190,366,175,-278,7,270,219,732,649,556,551,336
204,380,175,-292,14,278,219,732,653,566,570,346
224,395,170,-309,26,283,214,727,649,566,570,351
229,390,161,-309,34,275,209,727,649,566,561,351
234,390,156,-312,39,273,204,722,649,566,561,356
229,375,146,-302,41,261,195,707,644,561,561,356
224,370,146,-297,39,258,195,702,639,556,556,351
219,375,156,-297,31,265,190,688,634,551,551,346
209,370,161,-290,24,265,185,673,614,536,541,341
190,361,170,-275,9,265,190,678,614,536,546,341
190,356,165,-273,12,261,190,663,610,531,541,346
200,356,156,-278,21,256,180,663,600,527,541,351
200,351,151,-275,24,251,170,639,580,512,522,346
195,341,146,-268,24,244,161,610,566,483,507,331
185,341,156,-263,14,248,161,590,551,473,497,317
185,341,156,-263,14,248,165,570,541,458,488,312
185,336,151,-261,17,244,170,546,522,448,473,302
170,341,170,-256,0,256,156,522,497,434,448,287
161,341,180,-251,-9,261,151,488,478,409,434,278
151,331,180,-241,-14,256,146,463,444,390,414,263
131,312,180,-222,-24,246,131,439,414,356,385,239
126,292,165,-209,-19,229,117,409,400,331,361,224
117,278,161,-197,-21,219,117,375,375,312,341,204
117,278,161,-197,-21,219,112,351,346,292,322,195
107,278,170,-192,-31,224,112,331,331,278,307,185
92,253,161,-173,-34,207,107,307,317,263,287,170
68,234,165,-151,-48,200,107,278,287,239,273,156
39,209,170,-124,-65,190,97,248,258,214,248,141
19,190,170,-104,-75,180,82,219,229,185,214,112
29,195,165,-112,-68,180,82,204,209,156,200,92
29,195,165,-112,-68,180,82,185,195,146,195,87
29,185,156,-107,-63,170,78,165,185,126,175,73
39,185,146,-112,-53,165,73,146,161,117,161,68
34,185,151,-109,-58,168,82,141,151,107,161,63
24,180,156,-102,-65,168,82,122,141,97,146,53
29,180,151,-104,-61,165,82,107,136,87,136,48
34,161,126,-97,-46,143,78,92,122,73,122,43
0,136,136,-68,-68,136,58,68,87,43,97,19
-14,126,141,-56,-78,134,58,58,73,29,82,9
-34,117,151,-41,-92,134,58,53,68,24,78,-9
-63,112,175,-24,-119,143,48,39,58,14,68,-19
-43,117,161,-36,-102,139,53,43,68,24,68,-14
-24,117,141,-46,-82,129,48,29,53,14,58,-19
-24,122,146,-48,-85,134,53,24,39,4,53,-19
-14,126,141,-56,-78,134,58,24,34,0,43,-19
-9,107,117,-48,-63,112,53,14,19,-19,43,-39
-9,107,117,-48,-63,112,43,-4,9,-29,34,-43
-4,107,112,-51,-58,109,43,-4,9,-29,34,-43
0,112,112,-56,-56,112,39,-9,4,-39,19,-48
-14,107,122,-46,-68,114,39,-19,0,-39,9,-48
-29,102,131,-36,-80,117,39,-24,-4,-39,9,-53
-34,102,136,-34,-85,119,43,-24,-4,-39,9,-58
-34,97,131,-31,-82,114,43,-29,-4,-43,9,-58
-34,78,112,-21,-73,95,29,-29,-29,-63,-9,-68
-34,63,97,-14,-65,80,19,-43,-29,-68,-14,-82
-34,58,92,-12,-63,75,19,-53,-34,-82,-19,-82
-43,53,97,-4,-70,75,19,-53,-34,-82,-19,-82
-24,63,87,-19,-56,75,24,-53,-24,-78,-9,-82
-19,73,92,-26,-56,82,24,-48,-24,-73,-9,-78
-19,82,102,-31,-61,92,29,-48,-24,-73,-9,-78
-19,87,107,-34,-63,97,29,-53,-24,-78,-9,-78
-24,58,82,-17,-53,70,19,-58,-43,-92,-29,-102
-34,39,73,-2,-53,56,4,-78,-58,-97,-39,-112
-24,43,68,-9,-46,56,0,-82,-63,-107,-43,-117
-24,39,63,-7,-43,51,-4,-92,-73,-112,-48,-122
-19,39,58,-9,-39,48,4,-87,-63,-112,-39,-107
-19,43,63,-12,-41,53,14,-87,-63,-107,-39,-102
-19,58,78,-19,-48,68,14,-78,-58,-97,-39,-102
-24,63,87,-19,-56,75,14,-78,-58,-97,-39,-102
-24,43,68,-9,-46,56,14,-68,-58,-97,-39,-102
-29,34,63,-2,-46,48,9,-78,-73,-112,-53,-122
-29,34,63,-2,-46,48,9,-78,-73,-112,-53,-122
-14,43,58,-14,-36,51,19,-78,-63,-102,-39,-112
-24,48,73,-12,-48,61,19,-78,-48,-102,-39,-112
-24,48,73,-12,-48,61,19,-78,-48,-102,-39,-112
-19,53,73,-17,-46,63,19,-78,-53,-107,-43,-112
-19,63,82,-21,-51,73,19,-78,-53,-107,-43,-107
-29,58,87,-14,-58,73,19,-78,-63,-107,-58,-117
-14,53,68,-19,-41,61,19,-82,-68,-117,-63,-126
-14,48,63,-17,-39,56,19,-87,-68,-117,-63,-126
-14,43,58,-14,-36,51,24,-87,-68,-117,-63,-126
-14,53,68,-19,-41,61,14,-82,-63,-122,-53,-117
-14,53,68,-19,-41,61,14,-78,-58,-112,-48,-117
-14,53,68,-19,-41,61,19,-78,-53,-112,-43,-112
-14,68,82,-26,-48,75,19,-78,-53,-112,-39,-112
-9,82,92,-36,-51,87,29,-73,-43,-107,-39,-112
-14,63,78,-24,-46,70,29,-78,-48,-107,-43,-112
-9,58,68,-24,-39,63,19,-78,-48,-112,-43,-117
9,58,48,-34,-19,53,19,-78,-48,-97,-43,-117
0,48,48,-24,-24,48,24,-78,-43,-97,-34,-102
-9,48,58,-19,-34,53,29,-63,-39,-92,-29,-102
-9,58,68,-24,-39,63,29,-63,-34,-92,-29,-102
-9,58,68,-24,-39,63,29,-68,-34,-92,-34,-97
-19,43,63,-12,-41,53,24,-78,-53,-102,-43,-102
-24,29,53,-2,-39,41,19,-78,-53,-102,-43,-107
-34,24,58,4,-46,41,4,-82,-53,-107,-43,-117
-48,19,68,14,-58,43,-4,-82,-53,-107,-43,-122
-43,34,78,4,-61,56,4,-68,-43,-92,-34,-117
-34,34,68,0,-51,51,9,-63,-39,-87,-29,-107
-29,39,68,-4,-48,53,9,-58,-29,-78,-24,-97
-29,39,68,-4,-48,53,9,-53,-29,-78,-24,-92
-19,63,82,-21,-51,73,19,-43,-24,-73,-19,-82
-4,82,87,-39,-46,85,24,-48,-24,-68,-14,-82
-4,82,87,-39,-46,85,29,-48,-24,-68,-9,-82
-19,92,112,-36,-65,102,24,-58,-24,-63,-4,-82
-9,82,92,-36,-51,87,9,-53,-29,-68,-9,-87
9,78,68,-43,-29,73,4,-58,-34,-73,-9,-92
9,78,68,-43,-29,73,0,-63,-34,-78,-14,-97
4,78,73,-41,-34,75,0,-53,-29,-63,-9,-87
-4,82,87,-39,-46,85,19,-39,-14,-48,4,-73
-14,82,97,-34,-56,90,24,-34,-19,-48,4,-73
-24,82,107,-29,-65,95,29,-34,-14,-48,4,-73
-34,87,122,-26,-78,104,29,-34,-9,-43,9,-68
-14,87,102,-36,-58,95,24,-43,-14,-48,9,-68
-4,82,87,-39,-46,85,14,-43,-19,-53,4,-73
4,82,78,-43,-36,80,9,-43,-24,-58,0,-78
29,78,48,-53,-9,63,9,-43,-29,-63,-4,-82
24,82,58,-53,-17,70,19,-34,-29,-63,4,-82
19,87,68,-53,-24,78,19,-34,-29,-53,4,-82
24,92,68,-58,-21,80,19,-34,-24,-53,4,-78
19,87,68,-53,-24,78,19,-34,-24,-58,4,-78
34,97,63,-65,-14,80,14,-24,-19,-53,14,-73
39,107,68,-73,-14,87,14,-24,-19,-48,14,-73
43,122,78,-82,-17,100,19,-24,-19,-43,14,-68
39,146,107,-92,-34,126,24,-24,-9,-34,24,-63
34,136,102,-85,-34,119,19,-29,-14,-48,19,-63
19,122,102,-70,-41,112,9,-39,-24,-53,9,-68
14,107,92,-61,-39,100,4,-43,-29,-58,4,-68
9,97,87,-53,-39,92,-9,-53,-39,-63,0,-73
-4,73,78,-34,-41,75,-19,-63,-58,-78,-19,-87
4,68,63,-36,-29,65,-19,-68,-58,-78,-19,-92
-14,63,78,-24,-46,70,-19,-68,-58,-78,-19,-97
-29,58,87,-14,-58,73,-19,-63,-48,-78,-14,-102
-19,68,87,-24,-53,78,0,-48,-34,-63,-9,-87
-4,87,92,-41,-48,90,4,-43,-29,-58,0,-78
4,97,92,-51,-43,95,9,-39,-24,-53,4,-73
14,97,82,-56,-34,90,14,-39,-19,-48,9,-63
-4,87,92,-41,-48,90,0,-58,-34,-58,0,-73
-4,82,87,-39,-46,85,-4,-63,-43,-73,-9,-82
-4,78,82,-36,-43,80,-9,-73,-53,-82,-19,-92
-4,73,78,-34,-41,75,-14,-78,-63,-92,-29,-102
-24,73,97,-24,-61,85,-9,-63,-43,-82,-14,-87
-34,68,102,-17,-68,85,0,-63,-39,-78,-9,-82
-39,73,112,-17,-75,92,4,-58,-34,-73,-4,-78
-43,68,112,-12,-78,90,9,-53,-29,-63,0,-73
-4,78,82,-36,-43,80,19,-43,-19,-58,9,-63
9,112,102,-61,-46,107,19,-43,-19,-53,9,-58
4,126,122,-65,-58,124,19,-43,-19,-48,9,-58
0,141,141,-70,-70,141,24,-43,-19,-43,9,-58
63,156,92,-109,-14,124,24,-39,-14,-43,0,-58
73,161,87,-117,-7,124,29,-39,-14,-43,4,-63
24,165,141,-95,-58,153,29,-39,-4,-43,14,-53
-9,126,136,-58,-73,131,39,-19,9,-29,29,-39
0,126,126,-63,-63,126,34,-24,4,-39,24,-53
9,126,117,-68,-53,122,29,-29,0,-39,19,-58
19,126,107,-73,-43,117,24,-34,-4,-39,14,-63
29,126,97,-78,-34,112,19,-39,-9,-39,9,-68
24,131,107,-78,-41,119,29,-29,4,-39,19,-63
19,136,117,-78,-48,126,29,-24,4,-39,19,-63
4,141,136,-73,-65,139,24,-24,-4,-39,19,-58
-19,122,141,-51,-80,131,24,-24,-4,-39,9,-58
-24,107,131,-41,-78,119,34,-14,-4,-34,19,-58
-4,112,117,-53,-61,114,19,-19,-9,-39,19,-63
14,117,102,-65,-43,109,9,-29,-14,-39,19,-63
24,146,122,-85,-48,134,4,-34,-14,-39,24,-58
24,136,112,-80,-43,124,-14,-43,-19,-48,14,-63
24,136,112,-80,-43,124,-29,-53,-29,-53,9,-63
9,131,122,-70,-56,126,-34,-63,-34,-63,0,-68
9,126,117,-68,-53,122,-34,-78,-43,-78,-4,-78
9,97,87,-53,-39,92,-39,-92,-48,-82,-14,-92
14,92,78,-53,-31,85,-58,-107,-73,-97,-34,-102
14,87,73,-51,-29,80,-63,-122,-87,-102,-39,-102
14,82,68,-48,-26,75,-73,-122,-97,-107,-39,-102
29,87,58,-58,-14,73,-82,-126,-102,-112,-43,-122
39,97,58,-68,-9,78,-78,-117,-92,-107,-43,-107
39,107,68,-73,-14,87,-73,-107,-87,-107,-39,-107
34,112,78,-73,-21,95,-68,-112,-87,-107,-39,-102
19,92,73,-56,-26,82,-58,-107,-73,-102,-34,-97
9,87,78,-48,-34,82,-58,-102,-73,-102,-29,-102
4,87,82,-46,-39,85,-58,-97,-68,-97,-29,-97
-4,87,92,-41,-48,90,-53,-92,-63,-92,-24,-92
4,87,82,-46,-39,85,-58,-102,-78,-97,-29,-97
14,102,87,-58,-36,95,-63,-97,-78,-102,-34,-102
29,102,73,-65,-21,87,-63,-97,-82,-102,-39,-97
39,102,63,-70,-12,82,-63,-97,-82,-102,-34,-102
14,107,92,-61,-39,100,-48,-107,-73,-92,-29,-97
4,92,87,-48,-41,90,-48,-107,-78,-92,-29,-92
-14,87,102,-36,-58,95,-48,-107,-78,-97,-34,-102
-14,82,97,-34,-56,90,-48,-107,-78,-102,-34,-97
-14,73,87,-29,-51,80,-39,-92,-68,-92,-34,-97
-14,68,82,-26,-48,75,-39,-82,-68,-97,-34,-97
-19,63,82,-21,-51,73,-34,-78,-73,-97,-34,-97
-24,53,78,-14,-51,65,-34,-78,-73,-102,-48,-112
-29,48,78,-9,-53,63,-24,-87,-68,-122,-63,-122
-39,43,82,-2,-61,63,-29,-92,-78,-122,-63,-131
-53,48,102,2,-78,75,-29,-97,-78,-126,-73,-131
-43,53,97,-4,-70,75,-29,-97,-78,-126,-73,-131
-53,39,92,7,-73,65,-34,-102,-82,-126,-73,-131
-53,43,97,4,-75,70,-34,-107,-87,-126,-73,-131
-53,39,92,7,-73,65,-29,-102,-92,-126,-68,-131
-53,34,87,9,-70,61,-19,-107,-92,-122,-68,-126
-53,34,87,9,-70,61,-9,-102,-82,-117,-58,-131
-53,24,78,14,-65,51,-14,-97,-82,-117,-58,-131
-53,24,78,14,-65,51,-19,-92,-87,-126,-63,-136
-53,24,78,14,-65,51,-19,-92,-87,-126,-63,-136
-48,29,78,9,-63,53,-24,-97,-97,-126,-78,-146
-53,29,82,12,-68,56,-24,-102,-97,-136,-78,-146
-63,29,92,17,-78,61,-24,-107,-97,-122,-73,-146
-53,34,87,9,-70,61,-14,-107,-92,-122,-68,-146
-43,48,92,-2,-68,70,-14,-107,-92,-122,-68,-146
-53,34,87,9,-70,61,-19,-107,-92,-122,-73,-146
-53,39,92,7,-73,65,-19,-107,-97,-126,-73,-146
-48,43,92,2,-70,68,-19,-107,-97,-131,-73,-146
-53,29,82,12,-68,56,-19,-112,-107,-131,-82,-146
-48,24,73,12,-61,48,-19,-117,-107,-131,-87,-146
-53,19,73,17,-63,46,-19,-122,-102,-131,-87,-146
-63,14,78,24,-70,46,-14,-126,-102,-126,-82,-146
-78,19,97,29,-87,58,-14,-122,-92,-126,-73,-136
-82,34,117,24,-100,75,-14,-117,-92,-126,-73,-136
-102,24,126,39,-114,75,-14,-112,-92,-126,-73,-136
-107,9,117,48,-112,63,-19,-107,-97,-131,-73,-141
-117,14,131,51,-124,73,-19,-107,-97,-126,-73,-131
-112,9,122,51,-117,65,-14,-107,-92,-126,-73,-131
-112,9,122,51,-117,65,-14,-107,-92,-122,-73,-126
-112,9,122,51,-117,65,-9,-102,-92,-117,-73,-122
-131,24,156,53,-143,90,9,-92,-73,-102,-53,-122
-122,53,175,34,-148,114,9,-92,-73,-112,-53,-122
-112,53,165,29,-139,109,19,-82,-58,-92,-43,-112
-151,4,156,73,-153,80,0,-92,-78,-117,-73,-141
-151,4,156,73,-153,80,-4,-92,-82,-126,-92,-156
-131,-4,126,68,-129,61,29,-68,-68,-112,-87,-156
-170,-53,117,112,-143,31,48,-48,-53,-112,-87,-161
-195,-24,170,109,-183,73,87,4,-14,-82,-73,-146
-165,14,180,75,-173,97,146,97,58,-29,-19,-122
-156,58,214,48,-185,136,195,141,122,24,9,-92
-146,112,258,17,-202,185,234,180,185,82,73,-34
-136,141,278,-2,-207,209,239,190,214,126,117,4
-126,161,287,-17,-207,224,185,180,229,146,156,29
-112,151,263,-19,-187,207,141,195,258,200,214,78
-63,141,204,-39,-134,173,78,185,273,268,287,141
19,209,190,-114,-85,200,4,175,322,351,400,229
107,287,180,-197,-36,234,-63,180,380,463,541,356
200,331,131,-265,34,231,-190,146,390,561,668,473
312,424,112,-368,100,268,-297,97,400,644,800,590
390,473,82,-431,153,278,-395,43,395,692,883,688
405,478,73,-441,165,275,-536,-63,297,658,878,702
444,497,53,-470,195,275,-668,-156,224,639,897,732
531,488,-43,-509,287,222,-771,-224,151,629,917,751
624,468,-156,-546,390,156,-893,-341,34,546,868,712
692,434,-258,-563,475,87,-966,-453,-117,414,771,644
707,326,-380,-517,544,-26,-1019,-580,-312,219,575,483
692,204,-488,-448,590,-141,-1054,-746,-556,-63,302,248
639,63,-575,-351,607,-256,-1078,-907,-766,-307,58,53
570,-68,-639,-251,605,-353,-1107,-1073,-966,-536,-180,-136
536,-146,-683,-195,610,-414,-1102,-1200,-1127,-751,-419,-336
473,-229,-702,-122,588,-466,-1034,-1273,-1244,-917,-610,-483
336,-341,-678,2,507,-509,-971,-1395,-1356,-1063,-785,-610
224,-380,-605,78,414,-492,-917,-1498,-1434,-1161,-912,-688
156,-385,-541,114,348,-463,-849,-1449,-1390,-1141,-917,-707
97,-375,-473,139,285,-424,-775,-1337,-1298,-1073,-878,-697
82,-346,-429,131,256,-387,-692,-1234,-1210,-990,-829,-663
73,-341,-414,134,244,-378,-663,-1156,-1137,-932,-780,-649
34,-292,-326,129,180,-309,-634,-1073,-1058,-883,-766,-639
-39,-224,-185,131,73,-204,-536,-956,-941,-790,-697,-585
-117,-224,-107,170,-4,-165,-444,-829,-814,-683,-619,-536
-141,-175,-34,158,-53,-104,-366,-702,-692,-570,-531,-478
-97,-87,9,92,-53,-39,-278,-561,-561,-453,-429,-395
-68,-14,53,41,-61,19,-200,-439,-458,-346,-341,-326
-58,48,107,4,-82,78,-136,-331,-346,-248,-258,-268
-39,53,92,-7,-65,73,-92,-239,-258,-170,-195,-214
-68,24,92,21,-80,58,-97,-214,-239,-161,-190,-219
-102,24,126,39,-114,75,-97,-200,-214,-156,-195,-234
-58,34,92,12,-75,63,-63,-136,-161,-102,-156,-204
-48,43,92,2,-70,68,-39,-107,-131,-63,-122,-190
-73,14,87,29,-80,51,-34,-102,-117,-48,-122,-190
-87,-9,78,48,-82,34,-9,-78,-97,-29,-97,-180
-78,39,117,19,-97,78,19,-48,-63,0,-58,-146
-78,48,126,14,-102,87,34,-39,-53,14,-58,-136
-107,14,122,46,-114,68,4,-58,-73,-4,-78,-165
-97,19,117,39,-107,68,0,-48,-58,4,-78,-165
-97,24,122,36,-109,73,0,-34,-43,9,-68,-170
-97,29,126,34,-112,78,4,-29,-34,14,-63,-170
-92,34,126,29,-109,80,14,-19,-29,24,-53,-151
-73,68,141,2,-107,104,29,4,-4,48,-24,-117
-73,97,170,-12,-122,134,48,14,9,68,-4,-107
-73,107,180,-17,-126,143,63,29,24,82,9,-102
-78,107,185,-14,-131,146,87,53,34,97,24,-97
-82,102,185,-9,-134,143,82,48,39,92,14,-107
-82,97,180,-7,-131,139,78,58,43,92,9,-112
-82,92,175,-4,-129,134,78,63,48,102,9,-102
-68,97,165,-14,-117,131,73,63,48,97,9,-102
-78,117,195,-19,-136,156,82,82,68,122,43,-87
-78,126,204,-24,-141,165,92,87,73,126,48,-82
-78,112,190,-17,-134,151,102,92,78,126,43,-78
-87,97,185,-4,-136,141,112,102,82,131,48,-73
-102,63,165,19,-134,114,102,102,68,117,34,-92
-112,53,165,29,-139,109,92,97,73,112,29,-97
-117,48,165,34,-141,107,87,107,73,122,29,-102
-122,43,165,39,-143,104,78,107,78,117,29,-102
-112,63,175,24,-143,119,87,117,87,131,48,-82
-112,68,180,21,-146,124,87,122,87,136,58,-82
-112,73,185,19,-148,129,87,122,87,141,58,-82
-107,68,175,19,-141,122,87,126,92,146,58,-82
-78,68,146,4,-112,107,78,122,92,141,48,-73
-73,68,141,2,-107,104,78,126,92,141,48,-73
-73,68,141,2,-107,104,92,136,107,151,48,-68
-68,73,141,-2,-104,107,92,146,117,156,63,-63
-58,102,161,-21,-109,131,97,151,136,175,78,-48
-48,117,165,-34,-107,141,102,165,146,195,92,-39
-43,131,175,-43,-109,153,102,175,146,195,92,-39
-39,126,165,-43,-102,146,107,180,151,195,92,-24
-29,122,151,-46,-90,136,107,195,156,204,102,-24
-24,117,141,-46,-82,129,97,195,156,204,102,-34
-14,122,136,-53,-75,129,97,209,175,204,107,-34
-9,136,146,-63,-78,141,97,229,190,214,122,-24
-29,126,156,-48,-92,141,112,234,200,229,122,-24
-29,131,161,-51,-95,146,117,248,209,239,131,-14
-39,131,170,-46,-104,151,126,258,214,244,141,-4
-63,126,190,-31,-126,158,126,268,224,253,156,-4
-48,136,185,-43,-117,161,122,278,234,263,156,-4
-39,136,175,-48,-107,156,122,287,244,268,161,-4
-24,136,161,-56,-92,148,126,302,258,278,170,-4
-14,136,151,-61,-82,143,126,317,278,287,175,4
-14,146,161,-65,-87,153,146,341,307,317,200,24
-9,156,165,-73,-87,161,156,370,322,331,224,39
0,175,175,-87,-87,175,156,390,336,346,234,43
9,175,165,-92,-78,170,161,405,346,356,244,53
0,185,185,-92,-92,185,185,444,370,385,258,73
0,185,185,-92,-92,185,190,463,385,390,268,78
9,190,180,-100,-85,185,195,492,419,409,287,92
14,204,190,-109,-87,197,200,517,439,419,302,102
0,195,195,-97,-97,195,204,527,453,429,312,112
-4,200,204,-97,-104,202,209,546,478,448,322,117
0,204,204,-102,-102,204,214,566,488,473,336,126
4,200,195,-102,-95,197,214,580,502,488,346,136
19,214,195,-117,-87,204,209,590,512,512,370,151
29,219,190,-124,-80,204,209,600,522,522,380,156
43,224,180,-134,-68,202,209,610,531,531,390,161
58,239,180,-148,-61,209,214,629,561,551,419,175
39,244,204,-141,-82,224,224,673,585,575,448,209
43,258,214,-151,-85,236,234,688,610,600,473,229
48,283,234,-165,-92,258,248,707,634,619,497,248
39,287,248,-163,-104,268,253,717,649,644,512,268
63,292,229,-178,-82,261,244,717,644,639,522,268
73,297,224,-185,-75,261,244,727,649,653,536,273
73,302,229,-187,-78,265,239,741,658,663,536,278
78,312,234,-195,-78,273,239,751,673,673,546,287
73,297,224,-185,-75,261,229,751,668,678,546,283
73,297,224,-185,-75,261,224,756,678,683,551,292
78,302,224,-190,-73,263,224,761,688,688,561,302
82,307,224,-195,-70,265,229,771,688,692,570,307
92,326,234,-209,-70,280,229,761,683,692,580,312
107,336,229,-222,-61,283,224,756,678,692,580,312
107,326,219,-217,-56,273,219,756,678,692,570,307
107,322,214,-214,-53,268,214,751,678,692,570,307
107,307,200,-207,-46,253,214,751,668,683,566,302
107,302,195,-204,-43,248,214,751,668,683,566,302
107,307,200,-207,-46,253,209,741,668,683,566,302
102,302,200,-202,-48,251,204,732,653,673,561,302
97,307,209,-202,-56,258,200,722,644,663,556,287
102,307,204,-204,-51,256,200,702,639,658,551,287
117,312,195,-214,-39,253,190,697,629,653,551,287
122,312,190,-217,-34,251,180,668,610,639,531,278
97,283,185,-190,-43,234,156,639,580,614,512,258
78,273,195,-175,-58,234,151,619,561,600,497,248
68,263,195,-165,-63,229,151,600,546,580,483,248
58,248,190,-153,-65,219,151,575,522,566,463,244
48,248,200,-148,-75,224,141,551,492,551,458,239
43,253,209,-148,-82,231,141,517,478,527,444,229
39,248,209,-143,-85,229,141,492,448,507,424,214
24,234,209,-129,-92,222,131,468,424,473,395,190
-4,204,209,-100,-107,207,107,424,385,434,346,170
-19,180,200,-80,-109,190,97,385,356,409,322,146
-24,170,195,-73,-109,183,82,356,322,385,297,131
-39,161,200,-61,-119,180,73,331,302,366,278,117
-53,141,195,-43,-124,168,58,292,268,331,263,92
-68,126,195,-29,-131,161,58,258,239,307,244,78
-87,107,195,-9,-141,151,48,224,209,283,214,63
-97,92,190,2,-143,141,34,190,180,253,175,34
-73,102,175,-14,-124,139,43,175,161,224,141,19
-58,107,165,-24,-112,136,43,156,146,214,136,9
-43,102,146,-29,-95,124,39,136,136,195,117,-9
-19,107,126,-43,-73,117,34,117,112,185,102,-19
-19,136,156,-58,-87,146,48,117,112,190,117,-4
-24,151,175,-63,-100,163,63,112,112,185,117,-4
-14,170,185,-78,-100,178,78,112,117,180,122,0
-4,170,175,-82,-90,173,87,112,112,170,122,4
-4,165,170,-80,-87,168,63,87,87,161,97,-14
-4,165,170,-80,-87,168,58,78,73,146,82,-19
-9,165,175,-78,-92,170,53,73,68,141,78,-34
-24,170,195,-73,-109,183,39,58,58,131,68,-39
-39,165,204,-63,-122,185,48,43,48,122,58,-48
-34,156,190,-61,-112,173,39,29,34,112,48,-58
-48,151,200,-51,-124,175,39,24,19,102,43,-63
-53,146,200,-46,-126,173,39,24,14,97,34,-68
-78,102,180,-12,-129,141,24,14,9,78,14,-78
-87,87,175,0,-131,131,14,-4,0,68,4,-82
-92,73,165,9,-129,119,14,-4,0,68,4,-82
-97,63,161,17,-129,112,9,-9,-4,58,-9,-87
-97,68,165,14,-131,117,19,-9,0,68,0,-82
-107,73,180,17,-143,126,19,-14,-4,68,0,-82
-107,82,190,12,-148,136,24,-14,-4,68,0,-82
-102,87,190,7,-146,139,24,-19,-4,63,0,-78
-92,73,165,9,-129,119,14,-29,-34,43,-19,-92
-92,63,156,14,-124,109,0,-43,-39,39,-24,-112
-92,63,156,14,-124,109,-4,-53,-48,24,-29,-117
-102,63,165,19,-134,114,-9,-53,-53,24,-29,-122
-92,58,151,17,-122,104,4,-43,-43,29,-29,-117
-87,63,151,12,-119,107,4,-39,-43,34,-29,-107
-87,68,156,9,-122,112,9,-39,-43,34,-29,-102
-87,68,156,9,-122,112,9,-43,-43,29,-29,-97
-78,63,141,7,-109,102,4,-34,-48,34,-24,-117
-82,48,131,17,-107,90,-4,-48,-58,29,-29,-122
-68,58,126,4,-97,92,-4,-48,-58,19,-29,-122
-63,58,122,2,-92,90,-4,-53,-63,14,-29,-122
-82,43,126,19,-104,85,-4,-48,-53,4,-29,-117
-87,43,131,21,-109,87,4,-48,-53,9,-29,-112
-92,53,146,19,-119,100,4,-39,-48,19,-29,-112
-102,53,156,24,-129,104,4,-39,-48,19,-29,-112
-102,39,141,31,-122,90,4,-48,-58,19,-29,-122
-107,24,131,41,-119,78,0,-58,-73,4,-43,-141
-107,19,126,43,-117,73,0,-58,-73,4,-43,-141
-92,24,117,34,-104,70,9,-58,-63,14,-29,-131
-87,43,131,21,-109,87,14,-43,-53,19,-24,-126
-82,48,131,17,-107,90,19,-39,-48,24,-19,-122
-73,58,131,7,-102,95,24,-34,-48,24,-19,-117
-68,73,141,-2,-104,107,29,-29,-43,29,-14,-107
-82,53,136,14,-109,95,24,-34,-48,24,-24,-112
-73,43,117,14,-95,80,19,-43,-58,9,-34,-126
-78,34,112,21,-95,73,14,-53,-63,4,-39,-131
-82,24,107,29,-95,65,14,-58,-68,0,-43,-136
-82,24,107,29,-95,65,24,-43,-63,-4,-43,-146
-82,24,107,29,-95,65,24,-39,-58,4,-39,-146
-82,24,107,29,-95,65,29,-39,-53,4,-34,-141
-82,39,122,21,-102,80,29,-39,-53,4,-29,-141
-63,73,136,-4,-100,104,39,-29,-48,19,-24,-126
-63,63,126,0,-95,95,39,-29,-48,19,-24,-122
-53,68,122,-7,-87,95,29,-24,-43,14,-19,-122
-29,78,107,-24,-68,92,29,-19,-39,29,-14,-117
-39,68,107,-14,-73,87,43,-24,-43,29,-14,-112
-58,68,126,-4,-92,97,48,-14,-39,34,-9,-112
-68,78,146,-4,-107,112,48,-19,-34,34,-9,-112
-78,78,156,0,-117,117,48,-29,-34,34,-14,-107
-63,78,141,-7,-102,109,39,-29,-34,24,-14,-117
-63,68,131,-2,-97,100,39,-29,-34,24,-14,-117
-68,68,136,0,-102,102,29,-34,-34,19,-14,-122
-78,68,146,4,-112,107,24,-34,-34,19,-14,-122
-82,68,151,7,-117,109,24,-34,-39,19,-24,-126
-82,63,146,9,-114,104,29,-34,-39,19,-19,-126
-87,63,151,12,-119,107,29,-34,-34,24,-14,-126
-97,58,156,19,-126,107,29,-34,-39,19,-14,-131
-87,82,170,2,-129,126,39,-29,-39,24,-9,-117
-63,102,165,-19,-114,134,43,-29,-34,29,-4,-112
-53,102,156,-24,-104,129,48,-24,-29,29,0,-107
-58,112,170,-26,-114,141,43,-29,-24,34,4,-102
-48,102,151,-26,-100,126,43,-24,-29,24,0,-107
-29,97,126,-34,-78,112,43,-29,-34,24,0,-112
-29,97,126,-34,-78,112,43,-34,-34,24,-4,-117
-34,97,131,-31,-82,114,48,-24,-29,43,0,-107
-43,87,131,-21,-87,109,43,-14,-19,43,9,-97
-43,82,126,-19,-85,104,43,-14,-29,39,4,-102
-43,78,122,-17,-82,100,43,-19,-29,34,0,-107
-43,78,122,-17,-82,100,39,-24,-29,34,0,-107
-43,82,126,-19,-85,104,29,-34,-39,24,-4,-112
-43,82,126,-19,-85,104,24,-34,-39,24,-4,-112
-43,87,131,-21,-87,109,24,-34,-39,24,-4,-112
-29,87,117,-29,-73,102,29,-34,-39,24,-4,-112
-19,97,117,-39,-68,107,34,-29,-34,34,0,-107
-19,107,126,-43,-73,117,39,-24,-29,43,4,-102
-9,117,126,-53,-68,122,43,-19,-19,43,9,-92
-9,117,126,-53,-68,122,48,-14,-14,39,14,-87
-14,97,112,-41,-63,104,34,-24,-24,29,9,-97
-19,87,107,-34,-63,97,34,-24,-29,29,4,-102
-24,82,107,-29,-65,95,39,-24,-34,29,0,-102
-39,87,126,-24,-82,107,43,-24,-29,34,4,-102
-48,73,122,-12,-85,97,43,-14,-19,34,14,-92
-68,63,131,2,-100,97,39,-19,-24,34,9,-97
-78,53,131,12,-104,92,39,-19,-24,34,9,-97
-87,48,136,19,-112,92,29,-24,-29,34,9,-102
-82,29,112,26,-97,70,9,-34,-43,9,-4,-107
-63,29,92,17,-78,61,9,-39,-48,9,-9,-112
-73,29,102,21,-87,65,9,-39,-53,9,-14,-117
-78,29,107,24,-92,68,9,-34,-48,9,-14,-122
-78,39,117,19,-97,78,19,-29,-43,24,-9,-112
-73,58,131,7,-102,95,24,-24,-39,29,0,-107
-73,68,141,2,-107,104,29,-19,-34,34,4,-107
-73,68,141,2,-107,104,34,-19,-29,39,9,-102
-73,53,126,9,-100,90,29,-39,-48,24,0,-117
-73,43,117,14,-95,80,24,-43,-53,14,-9,-122
-73,34,107,19,-90,70,19,-53,-58,9,-19,-126
-73,24,97,24,-85,61,14,-58,-63,4,-29,-131
-87,39,126,24,-107,82,19,-48,-58,9,-19,-131
-92,39,131,26,-112,85,29,-53,-58,9,-19,-131
-92,48,141,21,-117,95,34,-53,-58,9,-19,-131
-92,48,141,21,-117,95,39,-53,-58,14,-19,-131
-29,73,102,-21,-65,87,53,-34,-48,24,-9,-117
19,122,102,-70,-41,112,58,-24,-39,34,0,-107
48,151,102,-100,-26,126,63,-14,-29,43,9,-102
78,180,102,-129,-12,141,73,-4,-19,53,19,-97
48,151,102,-100,-26,126,58,-9,-24,39,9,-112
34,131,97,-82,-31,114,58,-19,-34,34,4,-112
19,112,92,-65,-36,102,53,-29,-43,29,-4,-117
4,87,82,-46,-39,85,43,-43,-53,24,-19,-122
-4,78,82,-36,-43,80,43,-43,-48,34,-19,-131
-9,87,97,-39,-53,92,48,-39,-43,34,-19,-131
-14,92,107,-39,-61,100,63,-19,-34,39,-9,-122
-24,92,117,-34,-70,104,53,-14,-29,39,-9,-122
-87,122,209,-17,-148,165,68,24,-9,78,29,-92
-78,126,204,-24,-141,165,78,29,-9,87,39,-87
-68,141,209,-36,-139,175,87,34,4,97,43,-73
-58,146,204,-43,-131,175,87,39,9,97,48,-68
-48,151,200,-51,-124,175,87,43,14,97,53,-63
-39,156,195,-58,-117,175,87,48,19,97,58,-58
-19,165,185,-73,-102,175,78,34,14,87,53,-63
-9,165,175,-78,-92,170,78,34,14,87,48,-73
-9,165,175,-78,-92,170,73,29,4,87,43,-78
-19,141,161,-61,-90,151,73,24,4,87,29,-87
-34,131,165,-48,-100,148,73,39,9,87,34,-82
-24,131,156,-53,-90,143,58,39,9,87,39,-82
-14,131,146,-58,-80,139,48,34,9,92,43,-78
-14,156,170,-70,-92,163,43,34,14,97,53,-68
-4,136,141,-65,-73,139,19,9,-4,82,48,-78
-4,126,131,-61,-68,129,0,-4,-19,73,39,-82
-19,112,131,-46,-75,122,-9,-19,-29,58,24,-92
-19,97,117,-39,-68,107,-14,-39,-43,39,14,-107
-4,92,97,-43,-51,95,-29,-53,-48,34,14,-112
4,102,97,-53,-46,100,-48,-68,-73,19,-4,-122
9,112,102,-61,-46,107,-53,-82,-87,14,-9,-122
14,122,107,-68,-46,114,-63,-82,-97,9,-9,-122
29,107,78,-68,-24,92,-73,-87,-107,4,-14,-141
39,107,68,-73,-14,87,-68,-78,-92,9,-14,-126
39,107,68,-73,-14,87,-63,-68,-82,9,-9,-126
34,102,68,-68,-17,85,-58,-73,-78,9,-9,-122
29,92,63,-61,-17,78,-43,-63,-73,24,-4,-117
29,97,68,-63,-19,82,-39,-53,-73,24,0,-122
34,107,73,-70,-19,90,-34,-43,-68,29,0,-117
34,117,82,-75,-24,100,-24,-34,-63,34,4,-112
34,92,58,-63,-12,75,-29,-43,-68,29,-4,-117
34,102,68,-68,-17,85,-34,-39,-68,24,-4,-122
39,97,58,-68,-9,78,-34,-39,-73,24,-4,-117
39,92,53,-65,-7,73,-34,-39,-73,24,4,-122
24,97,73,-61,-24,85,-24,-34,-63,34,9,-117
14,92,78,-53,-31,85,-19,-29,-68,34,9,-112
-4,97,102,-46,-53,100,-14,-24,-68,29,4,-122
-4,102,107,-48,-56,104,-9,-19,-68,24,4,-117
-14,82,97,-34,-56,90,-9,-9,-78,19,0,-131
-14,68,82,-26,-48,75,-9,-4,-78,9,-4,-136
-19,53,73,-17,-46,63,-4,-4,-82,4,-9,-141
-24,34,58,-4,-41,46,-4,-9,-82,-4,-29,-161
-43,19,63,12,-53,41,-4,-14,-87,-4,-24,-161
-58,14,73,21,-65,43,-9,-14,-97,-4,-24,-170
-78,19,97,29,-87,58,-9,-14,-97,-9,-34,-170
-73,24,97,24,-85,61,-9,-9,-97,-9,-34,-170
-39,48,87,-4,-63,68,4,-9,-82,0,-24,-161
-14,73,87,-29,-51,80,4,-9,-78,0,-24,-161
9,87,78,-48,-34,82,9,0,-73,0,-19,-161
34,102,68,-68,-17,85,19,0,-63,4,-19,-156
29,117,87,-73,-29,102,29,-9,-73,9,-14,-151
24,112,87,-68,-31,100,24,-9,-73,9,-9,-151
19,117,97,-68,-39,107,19,-9,-78,0,-9,-156
14,122,107,-68,-46,114,19,-14,-78,0,-4,-156
4,117,112,-61,-53,114,24,-19,-87,-9,-19,-165
-4,107,112,-51,-58,109,24,-24,-87,-19,-19,-165
-19,97,117,-39,-68,107,24,-29,-87,-4,-14,-165
-14,92,107,-39,-61,100,34,-29,-82,-4,-9,-165
-9,107,117,-48,-63,112,43,-39,-82,-4,-9,-161
-14,92,107,-39,-61,100,39,-39,-82,-4,-14,-156
-9,97,107,-43,-58,102,39,-39,-87,-9,-14,-151
0,102,102,-51,-51,102,39,-39,-87,-14,-14,-146
-19,87,107,-34,-63,97,29,-39,-97,-24,-24,-156
-19,82,102,-31,-61,92,29,-39,-97,-24,-29,-156
-29,78,107,-24,-68,92,29,-39,-92,-24,-29,-156
-43,73,117,-14,-80,95,34,-39,-92,-19,-24,-156
-43,63,107,-9,-75,85,34,-29,-82,-9,-24,-156
-43,63,107,-9,-75,85,34,-29,-82,-9,-24,-156
-58,39,97,9,-78,68,34,-29,-82,-9,-24,-156
-58,9,68,24,-63,39,29,-29,-87,-14,-24,-161
-68,19,87,24,-78,53,19,-29,-87,-29,-34,-161
-73,19,92,26,-82,56,24,-29,-82,-29,-34,-161
-82,24,107,29,-95,65,24,-29,-82,-24,-34,-156
-92,29,122,31,-107,75,29,-24,-82,-19,-34,-151
-43,4,48,19,-46,26,19,-24,-92,-14,-24,-170
-82,-14,68,48,-75,26,19,-43,-102,-24,-34,-180
-122,-14,107,68,-114,46,48,-34,-87,-14,-34,-170
-141,-4,136,73,-139,65,68,-14,-68,0,-24,-151
-131,43,175,43,-153,109,92,14,-43,9,-14,-146
-92,63,156,14,-124,109,136,48,-9,24,-9,-136
-82,34,117,24,-100,75,146,68,-14,14,-19,-161
-68,43,112,12,-90,78,156,122,14,34,-14,-175
-68,53,122,7,-95,87,204,195,78,97,29,-141
-117,58,175,29,-146,117,244,239,131,141,78,-112
-126,92,219,17,-173,156,263,248,165,180,112,-63
-87,131,219,-21,-153,175,268,268,204,234,165,-14
-58,200,258,-70,-158,229,234,287,258,292,234,48
-4,229,234,-112,-119,231,180,283,278,346,302,107
14,180,165,-97,-75,173,87,253,273,385,356,151
39,200,161,-119,-61,180,-4,244,302,468,458,229
165,287,122,-226,21,204,-73,268,370,590,610,356
317,351,34,-334,141,192,-200,214,370,658,727,463
419,453,34,-436,192,244,-307,146,341,712,819,570
497,541,43,-519,226,292,-385,92,317,761,902,658
551,566,14,-558,268,290,-497,-4,258,746,917,702
629,595,-34,-612,331,280,-610,-78,195,736,936,732
717,566,-151,-641,434,207,-732,-156,102,697,927,722
751,478,-273,-614,512,102,-873,-292,-43,566,829,644
771,375,-395,-573,583,-9,-946,-414,-214,395,673,517
756,200,-556,-478,656,-178,-980,-561,-439,151,448,317
741,58,-683,-400,712,-312,-1044,-756,-712,-161,156,82
736,-14,-751,-361,744,-383,-1078,-936,-932,-405,-87,-112
658,-126,-785,-265,722,-456,-1068,-1073,-1083,-595,-307,-273
517,-253,-771,-131,644,-512,-1015,-1180,-1215,-780,-517,-444
385,-356,-741,-14,563,-549,-946,-1273,-1302,-936,-688,-570
239,-448,-688,104,463,-568,-912,-1424,-1415,-1083,-854,-697
136,-478,-614,170,375,-546,-878,-1478,-1454,-1151,-941,-756
97,-492,-590,197,344,-541,-790,-1371,-1371,-1083,-897,-746
48,-512,-561,231,305,-536,-717,-1249,-1278,-1015,-849,-727
53,-434,-488,190,270,-461,-663,-1156,-1200,-941,-800,-683
102,-341,-444,119,273,-392,-595,-1049,-1088,-854,-722,-619
43,-263,-307,109,175,-285,-497,-936,-971,-766,-658,-561
-29,-195,-165,112,68,-180,-390,-810,-824,-644,-570,-507
-58,-156,-97,107,19,-126,-307,-673,-697,-536,-492,-448
-92,-136,-43,114,-24,-90,-258,-575,-595,-463,-424,-409
-146,-146,0,146,-73,-73,-209,-473,-512,-385,-361,-366
-146,-161,-14,153,-65,-87,-190,-390,-448,-326,-302,-336
-117,-97,19,107,-68,-39,-146,-312,-385,-268,-258,-297
-78,-43,34,61,-56,-4,-82,-219,-297,-190,-185,-234
-78,4,82,36,-80,43,-19,-136,-209,-122,-131,-190
-82,43,126,19,-104,85,19,-73,-146,-68,-87,-156
-87,14,102,36,-95,58,34,-48,-102,-34,-58,-146
-87,-24,63,56,-75,19,29,-48,-92,-34,-63,-161
-82,-14,68,48,-75,26,43,-34,-78,-29,-53,-161
-97,-29,68,63,-82,19,48,-19,-78,-9,-48,-151
-87,-29,58,58,-73,14,39,-19,-102,-19,-48,-156
-58,19,78,19,-68,48,63,9,-73,4,-29,-136
-87,34,122,26,-104,78,92,39,-43,24,-9,-117
-102,29,131,36,-117,80,97,39,-29,34,-19,-117
-107,24,131,41,-119,78,97,53,-14,39,-9,-122
-112,19,131,46,-122,75,102,58,-4,43,-4,-122
-112,14,126,48,-119,70,112,68,0,53,4,-102
-92,19,112,36,-102,65,102,68,-9,48,4,-102
-82,29,112,26,-97,70,97,63,-9,48,4,-107
-73,19,92,26,-82,56,87,63,-9,43,0,-117
-68,0,68,34,-68,34,87,73,-14,39,-4,-126
-82,4,87,39,-85,46,92,87,0,48,4,-126
-92,9,102,41,-97,56,97,97,14,53,9,-122
-102,14,117,43,-109,65,107,102,29,68,19,-102
-97,29,126,34,-112,78,112,102,39,68,29,-92
-87,34,122,26,-104,78,97,97,29,73,34,-92
-87,39,126,24,-107,82,92,97,24,68,29,-102
-87,19,107,34,-97,63,87,97,19,58,14,-112
-97,0,97,48,-97,48,82,102,14,53,9,-122
-107,0,107,53,-107,53,92,117,24,63,9,-112
-112,4,117,53,-114,61,102,126,43,73,19,-107
-112,14,126,48,-119,70,117,151,58,97,34,-102
-112,24,136,43,-124,80,126,165,78,107,48,-92
-92,24,117,34,-104,70,112,165,63,102,53,-97
-82,19,102,31,-92,61,107,161,58,97,58,-102
-73,14,87,29,-80,51,102,151,53,92,53,-107
-58,0,58,29,-58,29,97,146,53,87,48,-112
-48,24,73,12,-61,48,107,165,78,107,53,-102
-53,29,82,12,-68,56,117,175,82,112,58,-92
-63,34,97,14,-80,65,141,190,102,126,63,-78
-68,43,112,12,-90,78,151,204,117,136,82,-63
-63,43,107,9,-85,75,146,214,122,131,82,-63
-58,48,107,4,-82,78,141,224,126,146,92,-58
-58,53,112,2,-85,82,131,229,122,141,87,-63
-58,39,97,9,-78,68,126,229,122,136,82,-53
-53,43,97,4,-75,70,151,248,141,161,92,-39
-53,48,102,2,-78,75,146,253,146,165,102,-43
-48,63,112,-7,-80,87,151,273,170,170,117,-39
-48,87,136,-19,-92,112,156,297,190,185,141,-24
-58,82,141,-12,-100,112,156,297,190,195,136,-29
-48,82,131,-17,-90,107,156,307,200,200,141,-24
-48,78,126,-14,-87,102,161,312,204,200,146,-19
-63,68,131,-2,-97,100,156,317,214,204,156,-24
-48,87,136,-19,-92,112,165,346,234,219,161,-14
-39,97,136,-29,-87,117,170,356,244,229,170,-4
-24,107,131,-41,-78,119,180,370,258,244,185,4
-14,117,131,-51,-73,124,185,385,278,258,195,24
-24,112,136,-43,-80,124,185,405,297,268,209,24
-19,117,136,-48,-78,126,195,429,312,283,234,39
-9,131,141,-61,-75,136,195,444,326,297,244,43
0,126,126,-63,-63,126,200,453,336,307,253,53
-14,131,146,-58,-80,139,204,468,346,317,253,68
-19,126,146,-53,-82,136,200,483,356,322,258,68
-14,126,141,-56,-78,134,195,507,385,341,273,78
-14,136,151,-61,-82,143,190,527,400,351,283,82
-4,146,151,-70,-78,148,204,551,419,375,312,102
4,170,165,-87,-80,168,219,575,448,400,331,117
24,195,170,-109,-73,183,234,600,463,429,356,136
43,209,165,-126,-61,187,244,619,483,448,375,156
34,214,180,-124,-73,197,248,639,502,453,380,170
39,209,170,-124,-65,190,248,649,512,463,390,175
48,204,156,-126,-53,180,248,658,522,473,400,180
58,209,151,-134,-46,180,253,678,551,492,429,195
48,214,165,-131,-58,190,258,712,570,522,444,204
63,229,165,-146,-51,197,263,727,590,541,463,219
78,253,175,-165,-48,214,273,746,610,556,483,234
78,258,180,-168,-51,219,273,756,619,575,492,248
97,273,175,-185,-39,224,263,766,614,575,492,248
112,278,165,-195,-26,222,263,775,619,585,507,253
117,283,165,-200,-24,224,258,790,629,590,507,258
126,292,165,-209,-19,229,258,800,644,595,517,268
136,278,141,-207,-2,209,258,810,649,605,536,273
141,278,136,-209,2,207,253,814,658,614,541,283
151,283,131,-217,9,207,253,819,668,624,551,292
161,287,126,-224,17,207,258,829,668,634,561,297
170,287,117,-229,26,202,248,824,653,629,561,302
185,297,112,-241,36,204,244,814,649,624,561,302
185,287,102,-236,41,195,239,810,649,619,551,297
185,283,97,-234,43,190,234,800,649,614,551,297
175,297,122,-236,26,209,239,800,658,624,566,312
175,302,126,-239,24,214,244,800,658,624,566,312
175,317,141,-246,17,229,244,790,658,624,566,312
170,322,151,-246,9,236,244,780,644,614,561,312
175,326,151,-251,12,239,229,780,634,605,546,297
180,326,146,-253,17,236,229,761,629,600,541,297
195,331,136,-263,29,234,219,756,619,595,541,297
200,331,131,-265,34,231,209,727,600,580,522,287
190,317,126,-253,31,222,209,707,595,570,512,283
175,322,146,-248,14,234,209,688,580,561,507,278
170,326,156,-248,7,241,214,668,570,546,502,283
165,326,161,-246,2,244,219,644,551,536,492,283
165,307,141,-236,12,224,200,605,512,497,463,263
161,302,141,-231,9,222,190,566,488,468,444,248
156,287,131,-222,12,209,180,536,448,444,419,229
141,263,122,-202,9,192,161,507,414,405,385,200
126,253,126,-190,0,190,146,478,395,385,356,185
117,239,122,-178,-2,180,146,444,375,370,341,165
117,239,122,-178,-2,180,141,419,351,356,326,156
107,239,131,-173,-12,185,141,400,341,346,317,146
112,239,126,-175,-7,183,131,375,326,331,297,136
107,234,126,-170,-9,180,136,346,297,307,283,126
97,224,126,-161,-14,175,131,317,268,283,258,117
97,219,122,-158,-12,170,122,287,239,253,224,92
97,224,126,-161,-14,175,131,278,229,244,214,92
87,224,136,-156,-24,180,131,263,214,234,214,87
78,214,136,-146,-29,175,126,248,204,214,200,73
78,214,136,-146,-29,175,122,234,180,204,190,68
68,200,131,-134,-31,165,107,204,151,175,170,43
53,180,126,-117,-36,153,102,180,131,156,146,24
53,165,112,-109,-29,139,97,161,117,136,126,9
53,131,78,-92,-12,104,87,141,92,112,102,-4
14,112,97,-63,-41,104,68,107,68,92,68,-34
-4,107,112,-51,-58,109,68,97,53,78,53,-39
-29,102,131,-36,-80,117,68,92,48,73,48,-53
-63,102,165,-19,-114,134,58,78,39,63,39,-58
-63,87,151,-12,-107,119,48,68,34,58,34,-68
-53,68,122,-7,-87,95,39,48,14,43,19,-78
-63,53,117,4,-90,85,39,39,-4,29,9,-82
-63,39,102,12,-82,70,39,34,-14,19,-4,-87
-68,29,97,19,-82,63,48,29,-14,14,0,-92
-68,39,107,14,-87,73,43,14,-19,9,-4,-92
-63,48,112,7,-87,80,48,19,-14,14,0,-87
-58,63,122,-2,-90,92,48,19,-14,9,-9,-87
-58,53,112,2,-85,82,34,0,-24,4,-14,-102
-68,43,112,12,-90,78,29,-4,-34,0,-19,-112
-68,39,107,14,-87,73,29,-4,-39,-4,-24,-122
-63,29,92,17,-78,61,24,-9,-43,-14,-29,-126
-58,34,92,12,-75,63,24,4,-53,-19,-34,-112
-53,34,87,9,-70,61,19,-4,-48,-19,-34,-122
-48,43,92,2,-70,68,24,-9,-48,-29,-34,-117
-53,53,107,0,-80,80,29,-4,-43,-24,-29,-112
-53,48,102,2,-78,75,24,-14,-53,-29,-39,-122
-48,43,92,2,-70,68,24,-9,-53,-24,-39,-117
-48,39,87,4,-68,63,29,-9,-53,-24,-39,-117
-48,29,78,9,-63,53,29,-14,-53,-29,-39,-117
-39,29,68,4,-53,48,39,-4,-43,-19,-29,-112
-43,29,73,7,-58,51,34,-9,-48,-19,-29,-112
-29,53,82,-12,-56,68,39,0,-43,-24,-24,-107
-24,68,92,-21,-58,80,43,4,-43,-24,-19,-102
-29,53,82,-12,-56,68,29,-14,-58,-29,-24,-107
-29,43,73,-7,-51,58,34,-19,-63,-29,-29,-112
-29,43,73,-7,-51,58,29,-14,-63,-24,-34,-122
-34,34,68,0,-51,51,24,-19,-68,-29,-39,-131
-48,29,78,9,-63,53,29,-14,-63,-19,-29,-126
-58,24,82,17,-70,53,29,-19,-73,-34,-43,-141
-63,29,92,17,-78,61,34,-14,-68,-34,-43,-136
-53,43,97,4,-75,70,48,-9,-53,-24,-29,-122
-43,39,82,2,-63,61,39,-19,-48,-24,-29,-131
-43,29,73,7,-58,51,39,-19,-48,-24,-29,-131
-39,24,63,7,-51,43,39,-19,-53,-29,-34,-131
-39,24,63,7,-51,43,39,-19,-53,-29,-34,-126
-39,29,68,4,-53,48,39,-9,-43,-19,-29,-122
-24,34,58,-4,-41,46,39,-14,-48,-29,-34,-126
-24,39,63,-7,-43,51,39,-19,-48,-29,-34,-122
-24,43,68,-9,-46,56,43,-19,-48,-29,-34,-117
-24,43,68,-9,-46,56,43,-9,-53,-24,-34,-117
-24,43,68,-9,-46,56,43,-9,-48,-14,-29,-117
-24,43,68,-9,-46,56,48,-14,-43,-14,-24,-112
-24,58,82,-17,-53,70,48,-19,-43,-14,-19,-112
-24,73,97,-24,-61,85,58,-14,-34,-14,-19,-102
-34,53,87,-9,-61,70,58,-19,-39,-19,-24,-102
-34,48,82,-7,-58,65,48,-19,-39,-29,-24,-107
-19,48,68,-14,-43,58,48,-19,-39,-19,-24,-107
-24,43,68,-9,-46,56,53,-19,-43,-19,-24,-112
-39,39,78,0,-58,58,58,-4,-39,-14,-19,-112
-43,43,87,0,-65,65,58,-4,-34,-14,-19,-112
-48,39,87,4,-68,63,58,-9,-34,-14,-24,-107
-34,39,73,-2,-53,56,58,-19,-43,-24,-24,-117
-34,29,63,2,-48,46,58,-19,-43,-24,-24,-117
-39,29,68,4,-53,48,48,-24,-43,-29,-24,-122
-48,29,78,9,-63,53,43,-24,-43,-29,-24,-122
-63,34,97,14,-80,65,48,-19,-34,-14,-24,-117
-63,34,97,14,-80,65,58,-14,-29,-9,-19,-107
-68,39,107,14,-87,73,63,-9,-19,0,-14,-97
-78,39,117,19,-97,78,68,-4,-19,0,-14,-92
-63,48,112,7,-87,80,73,4,-24,9,-4,-92
-43,63,107,-9,-75,85,73,0,-24,9,-4,-92
-39,58,97,-9,-68,78,73,0,-24,4,-4,-92
-48,63,112,-7,-80,87,63,-9,-24,4,-4,-92
-53,53,107,0,-80,80,58,-4,-29,-9,-19,-97
-48,48,97,0,-73,73,53,-9,-34,-14,-19,-102
-63,48,112,7,-87,80,48,-14,-34,-19,-24,-107
-82,48,131,17,-107,90,48,-4,-29,-4,-19,-97
-82,43,126,19,-104,85,53,-14,-29,-4,-9,-107
-82,34,117,24,-100,75,53,-14,-39,-9,-14,-112
-82,24,107,29,-95,65,53,-19,-39,-14,-19,-117
-82,19,102,31,-92,61,48,-24,-39,-14,-19,-117
-73,34,107,19,-90,70,48,-24,-39,-4,-24,-102
-73,34,107,19,-90,70,43,-24,-39,-4,-24,-102
-73,39,112,17,-92,75,43,-24,-39,-4,-24,-102
-58,39,97,9,-78,68,48,-24,-39,-4,-24,-102
-48,48,97,0,-73,73,48,-19,-39,-4,-14,-102
-48,48,97,0,-73,73,48,-14,-39,4,-14,-102
-39,48,87,-4,-63,68,48,-9,-34,4,-14,-97
-39,39,78,0,-58,58,48,-4,-34,0,-14,-97
-39,53,92,-7,-65,73,43,-14,-39,0,-14,-102
-39,58,97,-9,-68,78,43,-14,-39,0,-14,-102
-39,68,107,-14,-73,87,48,-14,-39,0,-14,-97
-48,87,136,-19,-92,112,53,-14,-29,4,-4,-92
-43,73,117,-14,-80,95,43,-14,-39,-4,-14,-97
-48,53,102,-2,-75,78,39,-19,-43,-4,-19,-107
-43,34,78,4,-61,56,39,-19,-43,-4,-19,-112
-39,19,58,9,-48,39,29,-24,-48,-4,-19,-122
-48,24,73,12,-61,48,29,-24,-48,-19,-29,-122
-34,29,63,2,-48,46,29,-29,-48,-19,-29,-122
-48,34,82,7,-65,58,29,-29,-48,-19,-29,-122
-58,39,97,9,-78,68,29,-24,-39,-19,-24,-122
-68,19,87,24,-78,53,29,-34,-43,-19,-34,-126
-63,19,82,21,-73,51,24,-34,-48,-19,-29,-126
-63,9,73,26,-68,41,19,-34,-53,-19,-29,-131
-63,-9,53,36,-58,21,14,-39,-58,-19,-29,-131
-73,-4,68,39,-70,31,24,-29,-53,-19,-29,-122
-73,4,78,34,-75,41,24,-24,-53,-24,-29,-122
-73,14,87,29,-80,51,24,-24,-53,-24,-29,-122
-73,24,97,24,-85,61,24,-19,-53,-24,-29,-122
-68,14,82,26,-75,48,19,-24,-53,-19,-39,-131
-63,9,73,26,-68,41,19,-34,-58,-19,-39,-131
-53,14,68,19,-61,41,14,-39,-63,-19,-39,-131
-43,9,53,17,-48,31,9,-43,-68,-14,-39,-131
-24,9,34,7,-29,21,19,-29,-63,-14,-34,-122
-19,34,53,-7,-36,43,19,-24,-58,-14,-29,-117
-34,39,73,-2,-53,56,19,-19,-53,-14,-24,-117
-48,43,92,2,-70,68,24,-14,-48,-14,-19,-117
-53,39,92,7,-73,65,24,-19,-43,-4,-19,-117
-53,43,97,4,-75,70,29,-19,-43,-4,-14,-112
-53,48,102,2,-78,75,29,-19,-43,-4,-14,-112
-53,48,102,2,-78,75,24,-24,-43,-4,-19,-112
-34,39,73,-2,-53,56,34,-19,-43,-14,-19,-122
-87,39,126,24,-107,82,39,-9,-34,-4,-9,-112
-82,63,146,9,-114,104,53,14,-19,9,0,-92
-43,63,107,-9,-75,85,53,14,-9,19,9,-92
-48,48,97,0,-73,73,29,0,-29,0,-9,-107
-43,53,97,-4,-70,75,29,0,-29,9,0,-97
-39,58,97,-9,-68,78,29,0,-29,9,0,-97
-34,63,97,-14,-65,80,29,0,-29,9,0,-97
-29,68,97,-19,-63,82,29,0,-29,9,0,-97
-24,78,102,-26,-63,90,43,14,-14,24,14,-82
-19,87,107,-34,-63,97,48,24,-4,29,19,-82
-24,97,122,-36,-73,109,48,29,-4,34,24,-78
-39,82,122,-21,-80,102,53,34,4,39,19,-78
-48,48,97,0,-73,73,43,24,0,29,14,-82
-34,43,78,-4,-56,61,29,19,-9,19,9,-92
-19,39,58,-9,-39,48,19,9,-19,14,4,-97
-14,58,73,-21,-43,65,14,4,-24,9,4,-97
-24,53,78,-14,-51,65,4,-4,-29,9,14,-92
-34,48,82,-7,-58,65,-9,-14,-39,4,9,-92
-58,39,97,9,-78,68,-14,-24,-43,-4,0,-97
-68,29,97,19,-82,63,-14,-39,-53,-19,-4,-107
-53,14,68,19,-61,41,-34,-68,-78,-43,-19,-131
-43,14,58,14,-51,36,-58,-87,-102,-58,-43,-141
-39,14,53,12,-46,34,-68,-107,-117,-63,-53,-141
-34,14,48,9,-41,31,-82,-112,-126,-68,-58,-141
-19,29,48,-4,-34,39,-73,-102,-117,-58,-48,-136
-9,39,48,-14,-29,43,-68,-87,-102,-48,-43,-117
-9,48,58,-19,-34,53,-63,-73,-92,-43,-34,-112
-14,53,68,-19,-41,61,-58,-73,-87,-39,-29,-102
-14,34,48,-9,-31,41,-58,-73,-97,-39,-29,-112
-9,29,39,-9,-24,34,-58,-73,-102,-43,-29,-122
0,29,29,-14,-14,29,-58,-73,-102,-43,-34,-122
4,29,24,-17,-9,26,-53,-73,-102,-43,-34,-122
4,24,19,-14,-7,21,-43,-63,-97,-34,-24,-112
4,43,39,-24,-17,41,-43,-58,-87,-34,-24,-112
9,48,39,-29,-14,43,-39,-58,-82,-29,-24,-102
9,53,43,-31,-17,48,-34,-58,-73,-24,-14,-102
-14,34,48,-9,-31,41,-39,-68,-82,-29,-14,-107
-34,4,39,14,-36,21,-39,-68,-87,-34,-19,-112
-63,-14,48,39,-56,17,-39,-68,-87,-43,-29,-131
-73,-34,39,53,-56,2,-39,-68,-87,-53,-34,-136
-58,-19,39,39,-48,9,-29,-68,-78,-43,-24,-131
-53,-9,43,31,-48,17,-29,-63,-78,-48,-24,-126
-53,0,53,26,-53,26,-24,-63,-82,-48,-24,-122
-53,4,58,24,-56,31,-24,-68,-82,-53,-39,-131
-58,-14,43,36,-51,14,-14,-78,-97,-63,-43,-141
-68,-24,43,46,-56,9,-19,-82,-107,-63,-43,-151
-82,-24,58,53,-70,17,-19,-87,-107,-68,-53,-151
-73,-24,48,48,-61,12,-19,-87,-107,-68,-53,-151
-87,-29,58,58,-73,14,-19,-97,-117,-73,-63,-161
-92,-24,68,58,-80,21,-24,-97,-117,-78,-63,-161
-97,-29,68,63,-82,19,-24,-87,-117,-82,-58,-161
-102,-34,68,68,-85,17,-19,-87,-112,-82,-58,-156
-107,-43,63,75,-85,9,-9,-87,-102,-78,-58,-161
-112,-53,58,82,-85,2,-14,-87,-102,-78,-58,-161
-117,-53,63,85,-90,4,-19,-87,-107,-87,-63,-165
-122,-53,68,87,-95,7,-19,-92,-107,-87,-63,-165
-117,-48,68,82,-92,9,-14,-92,-107,-87,-68,-156
-122,-48,73,85,-97,12,-14,-92,-107,-97,-68,-156
-131,-48,82,90,-107,17,-14,-92,-107,-82,-63,-156
-122,-43,78,82,-100,17,-4,-87,-102,-82,-58,-156
-112,-39,73,75,-92,17,-4,-78,-92,-78,-48,-156
-112,-53,58,82,-85,2,-9,-78,-92,-73,-53,-156
-102,-48,53,75,-78,2,-9,-78,-97,-73,-53,-156
-87,-43,43,65,-65,0,-9,-78,-97,-73,-53,-156
-97,-58,39,78,-68,-9,-19,-87,-102,-87,-63,-165
-97,-63,34,80,-65,-14,-19,-87,-107,-92,-68,-165
-107,-68,39,87,-73,-14,-19,-87,-107,-97,-68,-165
-122,-73,48,97,-85,-12,-14,-87,-112,-97,-63,-165
-126,-58,68,92,-97,4,-9,-78,-107,-92,-63,-161
-122,-43,78,82,-100,17,-4,-78,-102,-87,-63,-156
-131,-53,78,92,-104,12,0,-78,-97,-82,-63,-151
-126,-68,58,97,-92,-4,0,-78,-97,-82,-63,-151
-112,-53,58,82,-85,2,0,-78,-107,-87,-63,-151
-102,-48,53,75,-78,2,4,-78,-102,-87,-63,-151
-97,-39,58,68,-78,9,4,-78,-102,-82,-63,-146
-92,-29,63,61,-78,17,9,-73,-102,-78,-63,-141
-92,-24,68,58,-80,21,19,-53,-82,-73,-53,-131
-112,-63,48,87,-80,-7,19,-53,-82,-73,-53,-131
-141,-73,68,107,-104,-2,0,-73,-107,-82,-73,-151
-131,-43,87,87,-109,21,19,-63,-87,-68,-63,-141
-112,-43,68,78,-90,12,34,-53,-82,-68,-53,-146
-122,-43,78,82,-100,17,39,-48,-78,-82,-68,-165
-122,-34,87,78,-104,26,78,-9,-53,-63,-58,-161
-136,-34,102,85,-119,34,107,34,-24,-43,-53,-146
-146,-4,141,75,-143,68,146,107,19,-9,-29,-122
-126,9,136,58,-131,73,195,190,92,53,29,-92
-126,4,131,61,-129,68,214,209,126,82,43,-73
-165,43,209,61,-187,126,229,229,175,126,87,-43
-146,73,219,36,-183,146,253,278,239,204,165,29
-82,73,156,4,-119,114,200,283,258,239,214,58
-34,102,136,-34,-85,119,136,263,263,268,258,92
39,141,102,-90,-31,122,73,273,292,341,351,170
126,200,73,-163,26,136,4,278,351,444,473,287
248,283,34,-265,107,158,-82,283,400,561,610,414
361,346,-14,-353,187,165,-200,234,390,624,722,512
429,395,-34,-412,231,180,-307,161,366,653,795,580
483,429,-53,-456,268,187,-409,82,326,668,839,634
561,448,-112,-505,336,168,-541,-19,244,639,839,653
639,468,-170,-553,405,148,-663,-97,170,600,849,653
732,448,-283,-590,507,82,-775,-175,82,556,829,653
790,395,-395,-592,592,0,-888,-297,-78,434,722,575
805,317,-488,-561,646,-85,-951,-434,-273,248,556,453
790,156,-634,-473,712,-239,-1005,-619,-517,-24,302,239
756,-34,-790,-361,773,-412,-1088,-849,-795,-336,0,-14
707,-156,-863,-275,785,-509,-1117,-1024,-995,-575,-239,-214
634,-263,-897,-185,766,-580,-1102,-1171,-1146,-761,-448,-385
541,-336,-878,-102,710,-607,-1063,-1293,-1273,-946,-658,-561
434,-370,-805,-31,619,-588,-1000,-1395,-1356,-1073,-795,-658
302,-409,-712,53,507,-561,-936,-1498,-1424,-1161,-902,-717
175,-424,-600,124,387,-512,-868,-1498,-1400,-1171,-927,-727
97,-453,-551,178,324,-502,-775,-1385,-1317,-1093,-878,-697
43,-502,-546,229,295,-524,-722,-1322,-1268,-1068,-868,-702
34,-448,-483,207,258,-466,-683,-1254,-1215,-1029,-839,-697
43,-400,-444,178,244,-422,-624,-1151,-1107,-941,-775,-649
-19,-390,-370,204,175,-380,-575,-1044,-1010,-868,-727,-624
-87,-312,-224,200,68,-268,-473,-927,-883,-771,-649,-575
-112,-214,-102,163,-4,-158,-356,-761,-732,-639,-531,-478
-126,-136,-9,131,-58,-73,-278,-619,-600,-522,-439,-395
-107,-92,14,100,-61,-39,-219,-507,-507,-434,-351,-326
-87,-97,-9,92,-39,-53,-165,-419,-434,-356,-287,-287
-97,-73,24,85,-61,-24,-141,-336,-375,-307,-263,-263
-68,-53,14,61,-41,-19,-97,-244,-297,-248,-200,-229
-63,-53,9,58,-36,-21,-58,-161,-224,-195,-156,-214
-68,-34,34,51,-51,0,-34,-117,-170,-161,-136,-195
-68,-14,53,41,-61,19,0,-58,-112,-112,-92,-161
-102,-24,78,63,-90,26,14,-43,-97,-97,-73,-141
-107,-9,97,58,-102,43,29,-19,-78,-68,-58,-122
-78,-19,58,48,-68,19,48,-9,-63,-48,-39,-117
-97,-39,58,68,-78,9,34,-29,-82,-73,-58,-126
-107,-24,82,65,-95,29,34,-19,-73,-63,-58,-126
-97,-34,63,65,-80,14,39,0,-58,-53,-48,-136
-97,-34,63,65,-80,14,39,14,-43,-48,-39,-141
-97,-34,63,65,-80,14,43,19,-34,-43,-34,-141
-92,-34,58,63,-75,12,53,29,-29,-34,-24,-122
-73,-14,58,43,-65,21,68,53,-19,-9,0,-92
-73,9,82,31,-78,46,78,53,-9,0,4,-87
-73,14,87,29,-80,51,82,58,0,4,4,-87
-78,9,87,34,-82,48,97,73,4,9,4,-87
-87,0,87,43,-87,43,87,68,9,4,-4,-97
-92,-9,82,51,-87,36,87,78,14,4,0,-102
-97,-19,78,58,-87,29,92,82,19,14,9,-92
-87,-19,68,53,-78,24,92,82,19,9,19,-92
-97,0,97,48,-97,48,92,97,34,29,29,-82
-97,9,107,43,-102,58,92,97,34,29,29,-82
-97,-4,92,51,-95,43,92,97,34,24,19,-82
-107,-19,87,63,-97,34,92,102,34,24,19,-82
-117,-43,73,80,-95,14,82,97,29,19,9,-97
-122,-43,78,82,-100,17,82,97,34,14,9,-97
-122,-39,82,80,-102,21,87,112,34,24,14,-97
-122,-34,87,78,-104,26,87,117,39,19,19,-92
-112,-4,107,58,-109,51,92,131,43,34,39,-78
-112,0,112,56,-112,56,97,141,48,39,48,-73
-112,4,117,53,-114,61,102,146,53,43,48,-68
-107,0,107,53,-107,53,107,156,63,48,48,-63
-87,0,87,43,-87,43,102,156,68,43,39,-73
-82,0,82,41,-82,41,97,156,63,43,39,-73
-82,0,82,41,-82,41,107,161,73,53,39,-68
-78,4,82,36,-80,43,102,165,78,58,53,-63
-78,9,87,34,-82,48,117,180,87,68,58,-48
-78,19,97,29,-87,58,122,195,97,87,73,-39
-82,29,112,26,-97,70,122,204,97,87,73,-39
-87,19,107,34,-97,63,126,209,102,87,73,-24
-97,0,97,48,-97,48,122,200,92,82,68,-34
-102,-19,82,61,-92,31,107,195,87,78,63,-53
-102,-29,73,65,-87,21,102,204,102,73,63,-63
-107,-29,78,68,-92,24,97,219,112,78,73,-63
-97,-9,87,53,-92,39,112,244,131,102,92,-39
-78,14,92,31,-85,53,126,268,151,122,112,-24
-68,34,102,17,-85,68,146,287,165,136,131,-9
-73,48,122,12,-97,85,156,307,185,156,156,-4
-63,43,107,9,-85,75,146,312,180,161,151,-14
-58,39,97,9,-78,68,141,317,185,161,151,-14
-48,34,82,7,-65,58,141,326,195,165,156,-14
-43,29,73,7,-58,51,136,336,209,170,156,-4
-53,34,87,9,-70,61,136,356,229,180,161,4
-58,39,97,9,-78,68,146,380,244,195,185,19
-58,53,112,2,-85,82,146,395,258,209,195,24
-58,48,107,4,-82,78,151,405,268,219,204,34
-73,29,102,21,-87,65,156,424,263,224,204,34
-78,19,97,29,-87,58,151,434,268,224,209,29
-73,14,87,29,-80,51,146,453,292,239,224,34
-73,19,92,26,-82,56,141,468,302,244,234,34
-63,29,92,17,-78,61,161,502,322,273,258,58
-63,53,117,4,-90,85,170,527,351,292,273,68
-53,78,131,-12,-92,104,180,551,366,317,292,82
-43,92,136,-24,-90,114,185,570,385,331,307,97
-39,102,141,-31,-90,122,180,585,395,336,312,102
-29,102,131,-36,-80,117,180,600,405,346,322,107
-14,102,117,-43,-65,109,180,614,414,356,331,112
0,112,112,-56,-56,112,185,639,444,375,361,126
-9,112,122,-51,-65,117,180,668,453,395,375,136
4,122,117,-63,-56,119,185,678,473,414,395,151
19,141,122,-80,-51,131,195,692,492,429,414,165
19,141,122,-80,-51,131,195,697,502,448,424,180
43,151,107,-97,-31,129,195,717,507,444,434,190
53,151,97,-102,-21,124,195,727,512,458,448,195
53,151,97,-102,-21,124,190,741,522,468,448,200
58,156,97,-107,-19,126,190,751,536,478,458,209
73,165,92,-119,-9,129,190,751,531,488,468,214
73,170,97,-122,-12,134,185,756,541,497,473,224
78,180,102,-129,-12,141,185,761,551,507,483,234
82,190,107,-136,-12,148,190,771,551,517,492,239
102,195,92,-148,4,143,200,780,556,507,502,244
117,200,82,-158,17,141,195,775,551,507,502,244
117,185,68,-151,24,126,190,775,551,507,492,239
117,175,58,-146,29,117,185,771,551,507,492,239
112,175,63,-143,24,119,175,761,541,507,497,244
107,175,68,-141,19,122,175,761,541,507,497,244
102,185,82,-143,9,134,170,751,541,507,497,244
92,185,92,-139,0,139,165,741,527,497,492,244
92,200,107,-146,-7,153,165,746,522,492,492,253
102,200,97,-151,2,148,170,732,522,492,492,258
122,204,82,-163,19,143,165,732,517,492,497,263
131,204,73,-168,29,139,161,707,502,483,483,258
117,175,58,-146,29,117,136,678,478,453,458,244
97,165,68,-131,14,117,131,658,463,444,448,229
87,156,68,-122,9,112,131,639,453,429,439,224
78,141,63,-109,7,102,131,614,434,419,424,214
68,146,78,-107,-4,112,126,595,405,400,409,209
63,146,82,-104,-9,114,122,556,390,380,395,200
58,136,78,-97,-9,107,117,527,361,366,375,185
43,117,73,-80,-14,95,102,497,336,336,346,161
43,107,63,-75,-9,85,87,458,317,312,317,146
39,92,53,-65,-7,73,87,424,297,292,302,126
43,92,48,-68,-2,70,82,400,273,273,287,117
39,92,53,-65,-7,73,82,380,263,258,278,107
34,97,63,-65,-14,80,73,361,248,239,258,102
19,87,68,-53,-24,78,78,326,219,219,244,87
0,73,73,-36,-36,73,73,292,190,200,219,73
-9,63,73,-26,-41,68,63,258,161,175,185,43
-34,43,78,-4,-56,61,58,229,131,151,161,24
-48,29,78,9,-63,53,53,204,117,136,156,19
-63,4,68,29,-65,36,43,180,107,112,136,4
-68,-9,58,39,-63,24,34,156,82,97,122,0
-87,-9,78,48,-82,34,43,141,78,92,112,-4
-102,-14,87,58,-95,36,43,122,63,78,97,-14
-102,-14,87,58,-95,36,43,107,53,63,87,-19
-102,-34,68,68,-85,17,39,92,34,43,73,-24
-107,-53,53,80,-80,0,24,63,9,14,48,-53
-112,-58,53,85,-82,-2,19,48,-4,0,34,-58
-122,-63,58,92,-90,-2,14,39,-9,-4,29,-73
-141,-63,78,102,-109,7,0,19,-19,-14,19,-78
-146,-68,78,107,-112,4,9,4,-29,-14,9,-78
-141,-78,63,109,-102,-7,0,-9,-43,-24,0,-87
-156,-82,73,119,-114,-4,0,-14,-58,-34,-4,-92
-161,-87,73,124,-117,-7,0,-14,-63,-39,-14,-97
-151,-102,48,126,-100,-26,-4,-29,-87,-68,-24,-117
-146,-107,39,126,-92,-34,-14,-53,-97,-78,-34,-122
-136,-112,24,124,-80,-43,-14,-58,-97,-78,-34,-122
-126,-112,14,119,-70,-48,-19,-68,-102,-87,-48,-126
-131,-102,29,117,-80,-36,-9,-68,-107,-78,-48,-117
-146,-102,43,124,-95,-29,-9,-73,-112,-78,-48,-122
-151,-97,53,124,-102,-21,-4,-73,-112,-78,-48,-126
-151,-97,53,124,-102,-21,-4,-78,-112,-82,-48,-126
-141,-122,19,131,-80,-51,-19,-78,-126,-102,-68,-136
-141,-131,9,136,-75,-61,-29,-92,-126,-107,-73,-151
-141,-131,9,136,-75,-61,-29,-102,-131,-122,-78,-151
-151,-131,19,141,-85,-56,-29,-102,-131,-122,-78,-151
-156,-117,39,136,-97,-39,-24,-102,-131,-107,-68,-141
-156,-112,43,134,-100,-34,-24,-97,-131,-102,-68,-136
-161,-107,53,134,-107,-26,-19,-97,-131,-102,-68,-136
-165,-107,58,136,-112,-24,-19,-102,-131,-107,-68,-136
-175,-126,48,151,-112,-39,-24,-102,-136,-122,-82,-156
-190,-146,43,168,-117,-51,-34,-117,-146,-126,-87,-161
-185,-141,43,163,-114,-48,-34,-117,-146,-136,-87,-161
-190,-146,43,168,-117,-51,-34,-122,-151,-141,-87,-161
-185,-141,43,163,-114,-48,-34,-117,-151,-136,-78,-146
-185,-141,43,163,-114,-48,-24,-117,-151,-126,-78,-141
-185,-131,53,158,-119,-39,-24,-107,-146,-112,-78,-141
-190,-131,58,161,-124,-36,-24,-107,-146,-107,-78,-141
-204,-156,48,180,-126,-53,-39,-122,-161,-117,-92,-156
-214,-180,34,197,-124,-73,-48,-136,-180,-141,-112,-180
-219,-195,24,207,-122,-85,-53,-141,-185,-151,-117,-185
-209,-200,9,204,-109,-95,-48,-146,-180,-151,-107,-180
-180,-170,9,175,-95,-80,-34,-131,-161,-136,-102,-165
-161,-146,14,153,-87,-65,-29,-126,-156,-131,-97,-161
-136,-117,19,126,-78,-48,-24,-122,-156,-131,-97,-156
-117,-82,34,100,-75,-24,-19,-117,-151,-126,-92,-146
-126,-92,34,109,-80,-29,-24,-122,-161,-136,-97,-151
-122,-102,19,112,-70,-41,-29,-131,-165,-146,-102,-165
-131,-112,19,122,-75,-46,-34,-141,-165,-146,-102,-170
-141,-122,19,131,-80,-51,-34,-146,-165,-146,-102,-175
-156,-131,24,143,-90,-53,-24,-131,-161,-141,-102,-165
-170,-131,39,151,-104,-46,-24,-126,-156,-131,-97,-165
-185,-131,53,158,-119,-39,-19,-126,-151,-131,-92,-161
-200,-117,82,158,-141,-17,-19,-126,-151,-131,-87,-161
-200,-126,73,163,-136,-26,-24,-141,-165,-146,-97,-180
-209,-161,48,185,-129,-56,-29,-146,-175,-156,-112,-190
-209,-180,29,195,-119,-75,-43,-146,-180,-170,-122,-204
-195,-195,0,195,-97,-97,-48,-146,-185,-165,-131,-214
-195,-190,4,192,-100,-92,-39,-136,-170,-161,-126,-195
-204,-185,19,195,-112,-82,-29,-122,-165,-151,-117,-190
-204,-170,34,187,-119,-68,-24,-122,-161,-146,-112,-185
-204,-165,39,185,-122,-63,-19,-126,-161,-141,-112,-175
-200,-165,34,183,-117,-65,-9,-126,-170,-151,-122,-180
-200,-175,24,187,-112,-75,-9,-126,-170,-151,-122,-185
-204,-175,29,190,-117,-73,-19,-131,-170,-156,-122,-195
-214,-175,39,195,-126,-68,-24,-131,-170,-156,-122,-200
-224,-180,43,202,-134,-68,-24,-136,-170,-151,-112,-190
-219,-180,39,200,-129,-70,-19,-131,-165,-146,-107,-185
-219,-175,43,197,-131,-65,-19,-126,-156,-136,-102,-180
-224,-175,48,200,-136,-63,-19,-122,-156,-136,-102,-180
-219,-175,43,197,-131,-65,-19,-131,-165,-146,-107,-185
-200,-170,29,185,-114,-70,-24,-136,-170,-146,-112,-190
-195,-185,9,190,-102,-87,-29,-136,-175,-151,-117,-195
-204,-190,14,197,-109,-87,-43,-146,-180,-151,-122,-200
-204,-195,9,200,-107,-92,-34,-126,-170,-151,-112,-190
-195,-195,0,195,-97,-97,-34,-126,-170,-151,-107,-190
-204,-190,14,197,-109,-87,-34,-126,-165,-151,-107,-190
-219,-185,34,202,-126,-75,-29,-112,-156,-131,-97,-175
-209,-165,43,187,-126,-61,-14,-107,-151,-122,-87,-165
-200,-161,39,180,-119,-61,-14,-102,-156,-126,-92,-170
-190,-156,34,173,-112,-61,-14,-102,-151,-131,-97,-175
-180,-146,34,163,-107,-56,-19,-102,-146,-131,-97,-175
-195,-156,39,175,-117,-58,-29,-107,-156,-131,-102,-170
-200,-161,39,180,-119,-61,-34,-112,-156,-131,-102,-170
-204,-161,43,183,-124,-58,-34,-117,-156,-131,-102,-170
-195,-165,29,180,-112,-68,-29,-122,-156,-131,-102,-170
-209,-165,43,187,-126,-61,-29,-117,-156,-131,-92,-170
-214,-165,48,190,-131,-58,-29,-112,-156,-122,-92,-170
-209,-165,43,187,-126,-61,-29,-107,-151,-122,-92,-165
-214,-175,39,195,-126,-68,-29,-102,-151,-126,-92,-165
-204,-175,29,190,-117,-73,-43,-117,-161,-131,-97,-180
-195,-175,19,185,-107,-78,-43,-122,-165,-136,-102,-180
-185,-170,14,178,-100,-78,-39,-126,-170,-141,-107,-175
-185,-156,29,170,-107,-63,-34,-131,-165,-141,-102,-170
-185,-151,34,168,-109,-58,-24,-117,-151,-126,-97,-165
-195,-151,43,173,-119,-53,-29,-117,-151,-122,-97,-165
-195,-151,43,173,-119,-53,-29,-112,-146,-117,-92,-161
-195,-146,48,170,-122,-48,-39,-112,-146,-112,-87,-161
-185,-161,24,173,-104,-68,-48,-117,-161,-131,-102,-175
-170,-165,4,168,-87,-80,-48,-126,-165,-136,-107,-180
-185,-170,14,178,-100,-78,-48,-131,-170,-141,-112,-185
-195,-175,19,185,-107,-78,-48,-131,-165,-146,-112,-190
-185,-165,19,175,-102,-73,-53,-122,-165,-136,-112,-180
-180,-156,24,168,-102,-65,-53,-122,-165,-136,-107,-175
-180,-156,24,168,-102,-65,-53,-122,-165,-136,-107,-175
-180,-165,14,173,-97,-75,-53,-126,-165,-136,-107,-170
-204,-175,29,190,-117,-73,-63,-131,-180,-136,-112,-180
-209,-180,29,195,-119,-75,-63,-131,-180,-141,-117,-180
-214,-185,29,200,-122,-78,-63,-136,-180,-141,-122,-180
-219,-190,29,204,-124,-80,-63,-136,-180,-141,-126,-180
-209,-175,34,192,-122,-70,-58,-126,-165,-126,-122,-175
-209,-175,34,192,-122,-70,-48,-131,-165,-126,-117,-170
-204,-165,39,185,-122,-63,-43,-131,-165,-126,-112,-165
-200,-165,34,183,-117,-65,-39,-131,-165,-122,-107,-161
-195,-195,0,195,-97,-97,-43,-136,-180,-131,-122,-170
-195,-180,14,187,-104,-82,-48,-141,-185,-141,-126,-175
-214,-185,29,200,-122,-78,-53,-146,-190,-151,-131,-185
-234,-190,43,212,-139,-73,-53,-151,-195,-161,-136,-195
-224,-180,43,202,-134,-68,-48,-141,-180,-151,-131,-180
-219,-170,48,195,-134,-61,-39,-136,-170,-141,-122,-170
-214,-161,53,187,-134,-53,-34,-131,-161,-131,-117,-165
-209,-156,53,183,-131,-51,-34,-131,-151,-122,-117,-161
-209,-170,39,190,-124,-65,-39,-141,-165,-126,-122,-165
-204,-165,39,185,-122,-63,-39,-146,-170,-131,-126,-170
-200,-165,34,183,-117,-65,-29,-136,-170,-131,-122,-165
-200,-170,29,185,-114,-70,-43,-141,-175,-136,-126,-170
-156,-151,4,153,-80,-73,-39,-131,-156,-117,-97,-161
-175,-122,53,148,-114,-34,-29,-122,-151,-107,-97,-151
-224,-117,107,170,-165,-4,-24,-102,-131,-87,-82,-131
-214,-165,48,190,-131,-58,-39,-117,-146,-107,-97,-146
-190,-151,39,170,-114,-56,-48,-126,-156,-117,-102,-151
-175,-146,29,161,-102,-58,-48,-126,-156,-117,-107,-156
-161,-141,19,151,-90,-61,-48,-126,-156,-117,-112,-161
-146,-136,9,141,-78,-63,-48,-126,-156,-117,-117,-165
-156,-126,29,141,-92,-48,-34,-122,-146,-107,-112,-161
-156,-126,29,141,-92,-48,-29,-112,-141,-107,-107,-161
-165,-126,39,146,-102,-43,-29,-107,-146,-107,-102,-156
-185,-151,34,168,-109,-58,-24,-102,-141,-107,-107,-156
-204,-175,29,190,-117,-73,-29,-102,-151,-122,-117,-161
-190,-180,9,185,-100,-85,-48,-107,-156,-126,-117,-170
-175,-185,-9,180,-82,-97,-63,-117,-161,-126,-117,-175
-170,-165,4,168,-87,-80,-73,-122,-161,-126,-112,-175
-170,-175,-4,173,-82,-90,-92,-141,-165,-126,-112,-180
-170,-175,-4,173,-82,-90,-107,-151,-175,-131,-117,-180
-185,-180,4,183,-95,-87,-112,-161,-180,-141,-126,-185
-185,-185,0,185,-92,-92,-112,-175,-190,-156,-131,-195
-190,-200,-9,195,-90,-104,-126,-209,-214,-170,-151,-200
-180,-200,-19,190,-80,-109,-146,-224,-239,-185,-170,-209
-175,-200,-24,187,-75,-112,-151,-239,-253,-190,-175,-209
-170,-200,-29,185,-70,-114,-161,-239,-263,-195,-175,-209
-156,-200,-43,178,-56,-122,-151,-229,-258,-185,-165,-214
-146,-195,-48,170,-48,-122,-146,-214,-239,-175,-161,-195
-146,-190,-43,168,-51,-117,-141,-200,-224,-170,-151,-190
-151,-190,-39,170,-56,-114,-136,-200,-214,-165,-146,-180
-146,-209,-63,178,-41,-136,-146,-200,-219,-175,-151,-190
-146,-214,-68,180,-39,-141,-146,-200,-229,-180,-156,-200
-141,-214,-73,178,-34,-143,-146,-200,-234,-180,-165,-200
-141,-214,-73,178,-34,-143,-141,-200,-239,-180,-170,-200
-156,-224,-68,190,-43,-146,-131,-204,-239,-190,-170,-209
-161,-209,-48,185,-56,-129,-131,-204,-234,-190,-170,-209
-161,-209,-48,185,-56,-129,-126,-209,-234,-185,-170,-200
-165,-209,-43,187,-61,-126,-122,-214,-229,-180,-161,-200
-180,-204,-24,192,-78,-114,-107,-209,-224,-175,-151,-195
-190,-219,-29,204,-80,-124,-107,-204,-224,-170,-156,-190
-209,-224,-14,217,-97,-119,-107,-200,-219,-170,-165,-200
-209,-229,-19,219,-95,-124,-107,-195,-214,-170,-170,-195
-224,-244,-19,234,-102,-131,-107,-209,-219,-175,-180,-200
-229,-253,-24,241,-102,-139,-107,-209,-224,-185,-180,-204
-239,-263,-24,251,-107,-143,-102,-214,-234,-190,-180,-209
-248,-278,-29,263,-109,-153,-102,-224,-239,-200,-195,-229
-258,-287,-29,273,-114,-158,-102,-224,-234,-200,-190,-234
-263,-287,-24,275,-119,-156,-107,-229,-244,-200,-190,-239
-273,-278,-4,275,-134,-141,-107,-234,-244,-204,-200,-234
-258,-268,-9,263,-124,-139,-107,-234,-244,-204,-200,-229
-248,-273,-24,261,-112,-148,-102,-244,-253,-214,-204,-234
-248,-268,-19,258,-114,-143,-102,-244,-253,-214,-209,-239
-248,-273,-24,261,-112,-148,-97,-234,-253,-214,-209,-244
-248,-278,-29,263,-109,-153,-87,-234,-248,-209,-214,-244
-239,-253,-14,246,-112,-134,-82,-219,-244,-200,-209,-234
-229,-248,-19,239,-104,-134,-82,-214,-239,-195,-204,-229
-219,-234,-14,226,-102,-124,-82,-209,-239,-200,-204,-229
-209,-219,-9,214,-100,-114,-78,-209,-234,-195,-200,-224
-239,-239,0,239,-119,-119,-87,-214,-239,-200,-209,-229
-258,-263,-4,261,-126,-134,-92,-219,-244,-214,-214,-234
-283,-287,-4,285,-139,-146,-97,-224,-248,-204,-214,-239
-287,-307,-19,297,-134,-163,-92,-224,-248,-209,-214,-244
-297,-297,0,297,-148,-148,-102,-234,-248,-209,-214,-234
-307,-317,-9,312,-148,-163,-107,-234,-248,-209,-219,-234
-307,-317,-9,312,-148,-163,-107,-234,-253,-214,-219,-234
-302,-317,-14,309,-143,-165,-107,-234,-253,-219,-219,-234
-287,-297,-9,292,-139,-153,-102,-224,-244,-209,-209,-224
-263,-287,-24,275,-119,-156,-97,-224,-244,-209,-214,-224
-248,-278,-29,263,-109,-153,-92,-224,-239,-209,-214,-224
-239,-268,-29,253,-104,-148,-82,-224,-239,-204,-209,-224
-248,-268,-19,258,-114,-143,-82,-224,-229,-195,-209,-214
-248,-258,-9,253,-119,-134,-82,-224,-229,-195,-209,-214
-263,-273,-9,268,-126,-141,-82,-224,-229,-195,-209,-214
-263,-292,-29,278,-117,-161,-87,-224,-234,-200,-209,-219
-263,-292,-29,278,-117,-161,-87,-224,-244,-204,-209,-229
-258,-292,-34,275,-112,-163,-82,-224,-239,-204,-209,-229
-258,-287,-29,273,-114,-158,-82,-224,-239,-200,-209,-224
-258,-283,-24,270,-117,-153,-78,-219,-239,-195,-209,-219
-317,-297,19,307,-168,-139,-78,-229,-229,-200,-209,-229
-307,-287,19,297,-163,-134,-68,-209,-219,-200,-200,-209
-287,-317,-29,302,-129,-173,-78,-219,-234,-209,-219,-229
-297,-317,-19,307,-139,-168,-78,-229,-253,-244,-248,-258
-326,-307,19,317,-173,-143,-34,-200,-229,-214,-239,-253
-336,-336,0,336,-168,-168,-9,-156,-204,-200,-224,-253
-287,-307,-19,297,-134,-163,0,-136,-180,-190,-224,-248
-263,-248,14,256,-139,-117,48,-53,-122,-141,-180,-214
-292,-219,73,256,-183,-73,87,19,-58,-78,-126,-180
-263,-146,117,204,-190,-14,126,73,24,-14,-68,-131
-224,-112,112,168,-168,0,175,141,97,63,4,-63
-263,-122,141,192,-202,9,180,190,146,107,48,-34
-253,-122,131,187,-192,4,165,239,180,156,97,9
-170,-122,48,146,-109,-36,112,273,209,209,165,58
-82,-112,-29,97,-26,-70,29,263,224,268,239,102
29,-43,-73,7,51,-58,-53,283,273,370,361,200
146,14,-131,-80,139,-58,-141,287,331,473,492,317
258,97,-161,-178,209,-31,-239,263,361,551,610,414
361,161,-200,-261,280,-19,-326,214,361,605,692,502
429,180,-248,-305,339,-34,-463,92,287,585,697,522
502,224,-278,-363,390,-26,-614,-53,190,551,702,546
629,253,-375,-441,502,-61,-727,-136,117,531,722,575
727,214,-512,-470,619,-148,-868,-244,-14,444,663,527
771,156,-614,-463,692,-229,-1000,-419,-219,263,517,409
741,53,-688,-397,714,-317,-1083,-610,-448,34,302,253
688,-73,-761,-307,724,-417,-1137,-814,-692,-229,29,34
653,-185,-839,-234,746,-512,-1180,-1000,-917,-483,-214,-170
610,-317,-927,-146,768,-622,-1205,-1190,-1107,-707,-429,-336
492,-419,-912,-36,702,-666,-1205,-1376,-1259,-907,-629,-497
390,-478,-868,43,629,-673,-1141,-1503,-1361,-1034,-800,-610
268,-531,-800,131,534,-666,-1083,-1615,-1439,-1141,-912,-697
151,-556,-707,202,429,-631,-1019,-1717,-1493,-1220,-1000,-756
78,-575,-653,248,366,-614,-936,-1654,-1454,-1200,-1000,-766
9,-600,-610,295,309,-605,-858,-1527,-1361,-1141,-966,-756
-39,-600,-561,319,261,-580,-805,-1464,-1327,-1122,-956,-756
-92,-619,-527,356,217,-573,-751,-1429,-1288,-1098,-956,-751
-190,-634,-444,412,126,-539,-683,-1342,-1215,-1039,-907,-727
-219,-556,-336,387,58,-446,-605,-1229,-1098,-951,-834,-668
-185,-478,-292,331,53,-385,-536,-1112,-990,-849,-756,-614
-204,-419,-214,312,4,-317,-463,-995,-873,-761,-678,-556
-258,-361,-102,309,-78,-231,-375,-849,-751,-649,-590,-478
-312,-351,-39,331,-136,-195,-317,-746,-678,-580,-536,-444
-322,-346,-24,334,-148,-185,-287,-673,-624,-531,-488,-414
-273,-292,-19,283,-126,-156,-224,-556,-522,-444,-414,-346
-195,-268,-73,231,-61,-170,-180,-444,-434,-385,-361,-312
-185,-248,-63,217,-61,-156,-146,-361,-366,-336,-326,-297
-219,-248,-29,234,-95,-139,-97,-268,-283,-263,-273,-263
-253,-278,-24,265,-114,-151,-82,-204,-239,-219,-244,-234
-234,-278,-43,256,-95,-161,-87,-204,-239,-219,-239,-239
-248,-287,-39,268,-104,-163,-82,-180,-224,-195,-219,-229
-273,-253,19,263,-146,-117,-58,-165,-204,-175,-204,-209
-224,-204,19,214,-122,-92,-29,-146,-180,-156,-175,-185
-195,-224,-29,209,-82,-126,-14,-126,-170,-151,-165,-185
-234,-248,-14,241,-109,-131,-14,-126,-170,-151,-175,-195
-229,-239,-9,234,-109,-124,-14,-117,-165,-151,-185,-204
-224,-239,-14,231,-104,-126,-19,-102,-151,-146,-175,-209
-219,-239,-19,229,-100,-129,-19,-97,-141,-141,-170,-209
-209,-239,-29,224,-90,-134,-14,-87,-136,-131,-161,-190
-209,-234,-24,222,-92,-129,-4,-82,-131,-122,-146,-165
-209,-214,-4,212,-102,-109,0,-82,-126,-117,-141,-165
-209,-214,-4,212,-102,-109,0,-78,-122,-117,-141,-170
-214,-224,-9,219,-102,-117,9,-63,-122,-117,-141,-175
-209,-224,-14,217,-97,-119,4,-68,-122,-126,-151,-185
-209,-224,-14,217,-97,-119,0,-58,-112,-122,-146,-190
-209,-224,-14,217,-97,-119,0,-53,-102,-107,-136,-180
-195,-214,-19,204,-87,-117,-4,-53,-97,-107,-126,-180
-185,-195,-9,190,-87,-102,0,-43,-82,-82,-97,-161
-185,-185,0,185,-92,-92,4,-39,-82,-78,-97,-161
-185,-200,-14,192,-85,-107,9,-34,-82,-78,-107,-161
-195,-214,-19,204,-87,-117,14,-24,-82,-73,-107,-161
-180,-209,-29,195,-75,-119,4,-19,-82,-82,-107,-156
-180,-200,-19,190,-80,-109,4,-19,-73,-82,-107,-156
-175,-185,-9,180,-82,-97,9,-4,-68,-68,-102,-156
-170,-170,0,170,-85,-85,9,0,-58,-68,-97,-151
-151,-165,-14,158,-68,-90,14,19,-53,-53,-78,-131
-151,-165,-14,158,-68,-90,19,24,-48,-48,-68,-131
-151,-165,-14,158,-68,-90,24,24,-43,-43,-68,-131
-146,-175,-29,161,-58,-102,29,29,-34,-39,-68,-131
-141,-180,-39,161,-51,-109,24,24,-34,-43,-78,-136
-151,-185,-34,168,-58,-109,19,29,-34,-43,-78,-141
-165,-190,-24,178,-70,-107,29,39,-19,-34,-78,-141
-175,-190,-14,183,-80,-102,24,48,-9,-29,-63,-141
-156,-165,-9,161,-73,-87,19,53,-4,-29,-58,-126
-146,-156,-9,151,-68,-82,24,68,0,-9,-43,-117
-141,-146,-4,143,-68,-75,24,78,-4,-9,-43,-117
-136,-156,-19,146,-58,-87,29,82,-4,-9,-43,-102
-131,-165,-34,148,-48,-100,34,97,0,0,-43,-112
-131,-175,-43,153,-43,-109,19,97,0,0,-43,-122
-126,-175,-48,151,-39,-112,14,112,19,0,-39,-122
-126,-165,-39,146,-43,-102,9,131,34,9,-24,-112
-112,-146,-34,129,-39,-90,24,146,43,24,-14,-102
-97,-131,-34,114,-31,-82,29,161,53,34,-4,-92
-92,-122,-29,107,-31,-75,39,170,58,39,4,-82
-102,-117,-14,109,-43,-65,39,180,68,48,19,-82
-107,-122,-14,114,-46,-68,43,200,78,58,9,-82
-107,-126,-19,117,-43,-73,43,209,87,63,14,-82
-102,-131,-29,117,-36,-80,48,224,102,73,24,-82
-102,-136,-34,119,-34,-85,48,239,122,82,29,-73
-97,-112,-14,104,-41,-63,48,258,131,102,53,-53
-87,-97,-9,92,-39,-53,58,283,146,117,78,-39
-73,-73,0,73,-36,-36,58,297,161,131,87,-34
-58,-68,-9,63,-24,-39,63,307,170,141,97,-24
-48,-68,-19,58,-14,-43,73,331,190,151,97,-19
-48,-68,-19,58,-14,-43,73,346,200,156,102,-19
-39,-63,-24,51,-7,-43,73,370,229,175,117,-9
-34,-48,-14,41,-9,-31,73,390,244,185,126,-4
-19,-43,-24,31,2,-34,73,414,248,195,141,4
-14,-24,-9,19,-2,-17,82,439,273,214,156,9
0,-4,-4,2,2,-4,92,463,283,239,175,19
14,4,-9,-9,12,-2,97,483,297,253,190,29
14,4,-9,-9,12,-2,112,512,326,278,214,53
19,4,-14,-12,17,-4,112,531,336,287,224,58
29,4,-24,-17,26,-9,112,551,346,297,234,63
39,14,-24,-26,31,-4,117,580,375,317,263,78
39,19,-19,-29,29,0,117,610,380,326,273,87
53,34,-19,-43,36,7,117,619,395,346,287,102
68,58,-9,-63,39,24,122,634,409,361,302,117
68,63,-4,-65,36,29,117,639,414,380,307,131
97,73,-24,-85,61,24,117,649,429,385,317,141
112,82,-29,-97,70,26,117,658,434,400,331,146
117,92,-24,-104,70,34,112,673,444,409,331,151
126,107,-19,-117,73,43,112,683,458,419,341,161
126,92,-34,-109,80,29,102,683,453,424,351,161
122,92,-29,-107,75,31,97,688,463,429,356,165
122,97,-24,-109,73,36,97,692,473,434,366,170
122,102,-19,-112,70,41,102,702,473,439,375,170
141,126,-14,-134,78,56,112,712,483,444,395,180
156,141,-14,-148,85,63,117,717,483,448,395,185
156,136,-19,-146,87,58,122,727,488,453,385,185
156,136,-19,-146,87,58,126,732,492,458,385,190
175,141,-34,-158,104,53,117,727,488,453,385,180
185,146,-39,-165,112,53,117,722,483,448,380,175
195,161,-34,-178,114,63,112,707,478,444,375,170
200,165,-34,-183,117,65,107,692,458,429,366,165
185,156,-29,-170,107,63,102,673,448,419,361,151
180,151,-29,-165,104,61,102,653,444,414,356,151
185,151,-34,-168,109,58,92,649,434,409,356,151
180,146,-34,-163,107,56,82,619,414,395,336,141
185,126,-58,-156,122,34,58,600,400,375,322,141
175,126,-48,-151,112,39,53,580,385,366,312,131
175,126,-48,-151,112,39,53,561,375,351,302,131
175,122,-53,-148,114,34,53,536,356,341,287,126
165,136,-29,-151,97,53,53,517,331,326,283,122
161,146,-14,-153,87,65,53,478,322,312,278,122
156,146,-9,-151,82,68,53,448,297,302,268,117
141,136,-4,-139,73,65,43,419,278,278,248,102
136,126,-9,-131,73,58,39,385,263,253,214,78
126,112,-14,-119,70,48,39,356,239,234,195,58
126,112,-14,-119,70,48,34,336,209,214,175,48
117,112,-4,-114,61,53,34,322,195,200,161,39
107,102,-4,-104,56,48,29,292,175,180,161,34
97,87,-9,-92,53,39,29,258,151,161,146,19
82,68,-14,-75,48,26,19,224,126,141,122,4
78,53,-24,-65,51,14,4,190,102,117,87,-24
68,43,-24,-56,46,9,-9,161,73,82,53,-39
58,39,-19,-48,39,9,-14,136,58,68,48,-48
48,24,-24,-36,36,0,-24,112,48,43,29,-68
48,19,-29,-34,39,-4,-34,87,24,29,14,-78
24,14,-9,-19,17,2,-24,73,9,24,4,-82
4,4,0,-4,2,2,-24,53,-4,9,-9,-92
0,0,0,0,0,0,-24,39,-14,-4,-19,-97
-4,-24,-19,14,7,-21,-29,24,-34,-24,-34,-102
-4,-29,-24,17,9,-26,-48,0,-53,-34,-48,-122
-4,-29,-24,17,9,-26,-48,-9,-63,-48,-63,-126
-9,-29,-19,19,4,-24,-48,-14,-63,-53,-68,-141
-24,-24,0,24,-12,-12,-58,-29,-68,-63,-78,-146
-14,-19,-4,17,-4,-12,-53,-34,-58,-58,-73,-141
-4,-19,-14,12,4,-17,-58,-48,-73,-63,-78,-146
-14,-14,0,14,-7,-7,-53,-53,-87,-68,-78,-146
-14,-9,4,12,-9,-2,-48,-53,-92,-68,-82,-146
-34,-48,-14,41,-9,-31,-63,-68,-117,-92,-97,-170
-39,-58,-19,48,-9,-39,-73,-92,-126,-107,-112,-180
-39,-68,-29,53,-4,-48,-73,-97,-126,-112,-117,-185
-39,-73,-34,56,-2,-53,-78,-107,-131,-126,-136,-195
-48,-68,-19,58,-14,-43,-63,-112,-131,-117,-131,-180
-58,-63,-4,61,-26,-34,-58,-112,-131,-117,-126,-180
-58,-53,4,56,-31,-24,-48,-107,-126,-117,-122,-180
-53,-48,4,51,-29,-21,-43,-107,-122,-122,-117,-175
-48,-53,-4,51,-21,-29,-53,-97,-136,-131,-126,-180
-43,-63,-19,53,-12,-41,-68,-112,-136,-136,-131,-200
-39,-63,-24,51,-7,-43,-73,-122,-141,-151,-136,-204
-43,-63,-19,53,-12,-41,-78,-122,-141,-151,-136,-209
-29,-48,-19,39,-4,-34,-73,-122,-151,-146,-136,-209
-19,-43,-24,31,2,-34,-73,-117,-151,-141,-136,-204
-14,-39,-24,26,4,-31,-68,-117,-151,-141,-136,-204
-9,-39,-29,24,9,-34,-68,-122,-151,-146,-136,-204
-24,-43,-19,34,-2,-31,-82,-122,-146,-141,-141,-204
-34,-58,-24,46,-4,-41,-92,-136,-156,-146,-146,-209
-24,-48,-24,36,0,-36,-92,-136,-156,-156,-146,-209
-24,-48,-24,36,0,-36,-92,-141,-161,-161,-146,-209
-24,-39,-14,31,-4,-26,-87,-141,-156,-156,-136,-204
-19,-34,-14,26,-2,-24,-73,-136,-151,-146,-136,-200
-14,-19,-4,17,-4,-12,-68,-122,-141,-131,-136,-200
-14,-14,0,14,-7,-7,-63,-117,-136,-126,-136,-200
-24,-29,-4,26,-9,-17,-63,-117,-146,-136,-146,-209
-29,-43,-14,36,-7,-29,-68,-126,-161,-151,-161,-229
-29,-48,-19,39,-4,-34,-68,-126,-161,-151,-161,-229
-14,-43,-29,29,7,-36,-58,-126,-151,-141,-146,-219
-29,-53,-24,41,-2,-39,-58,-126,-146,-151,-146,-209
-34,-58,-24,46,-4,-41,-58,-126,-146,-151,-146,-209
-34,-58,-24,46,-4,-41,-58,-126,-151,-156,-151,-209
-39,-53,-14,46,-12,-34,-58,-126,-151,-156,-151,-204
-29,-39,-9,34,-9,-24,-48,-117,-151,-151,-151,-195
-14,-34,-19,24,2,-26,-48,-122,-156,-156,-151,-204
-14,-29,-14,21,0,-21,-48,-126,-156,-151,-146,-204
-14,-24,-9,19,-2,-17,-43,-126,-156,-146,-141,-204
-24,-24,0,24,-12,-12,-48,-117,-151,-151,-151,-204
-24,-24,0,24,-12,-12,-53,-117,-146,-141,-146,-204
-24,-24,0,24,-12,-12,-53,-122,-141,-141,-141,-200
-24,-9,14,17,-19,2,-58,-126,-141,-141,-136,-200
-14,-4,9,9,-12,2,-48,-126,-131,-136,-131,-190
-24,-24,0,24,-12,-12,-48,-126,-136,-136,-131,-190
-24,-29,-4,26,-9,-17,-58,-122,-136,-141,-126,-195
-9,-29,-19,19,4,-24,-58,-117,-136,-126,-122,-195
0,-29,-29,14,14,-29,-63,-117,-141,-136,-131,-200
-9,-29,-19,19,4,-24,-58,-102,-136,-131,-126,-200
-9,-19,-9,14,0,-14,-58,-102,-131,-131,-126,-200
-9,-19,-9,14,0,-14,-58,-107,-131,-131,-131,-195
-9,-29,-19,19,4,-24,-48,-97,-136,-126,-126,-185
-14,-39,-24,26,4,-31,-48,-97,-131,-122,-122,-185
-24,-39,-14,31,-4,-26,-58,-102,-126,-122,-117,-190
-39,-39,0,39,-19,-19,-63,-102,-122,-117,-112,-190
-29,-19,9,24,-19,-4,-63,-97,-122,-122,-102,-185
-14,-14,0,14,-7,-7,-58,-92,-117,-117,-97,-175
-4,-4,0,4,-2,-2,-58,-87,-107,-107,-92,-165
0,0,0,0,0,0,-58,-82,-107,-107,-92,-161
-9,4,14,2,-12,9,-53,-73,-102,-97,-82,-161
4,14,9,-9,-2,12,-53,-78,-102,-97,-82,-161
4,4,0,-4,2,2,-53,-78,-102,-102,-82,-161
-9,4,14,2,-12,9,-63,-87,-102,-102,-82,-161
9,9,0,-9,4,4,-63,-68,-102,-102,-82,-161
29,9,-19,-19,24,-4,-63,-68,-102,-102,-78,-161
29,14,-14,-21,21,0,-63,-68,-97,-102,-78,-161
24,19,-4,-21,14,7,-58,-53,-87,-82,-68,-146
19,29,9,-24,4,19,-43,-53,-78,-78,-63,-136
14,24,9,-19,2,17,-43,-53,-87,-78,-63,-141
9,19,9,-14,0,14,-43,-58,-87,-78,-63,-146
4,19,14,-12,-4,17,-48,-63,-87,-73,-58,-146
14,19,4,-17,4,12,-48,-63,-87,-82,-63,-151
14,14,0,-14,7,7,-53,-63,-87,-82,-63,-151
14,14,0,-14,7,7,-53,-63,-87,-82,-63,-151
29,9,-19,-19,24,-4,-48,-63,-87,-82,-63,-151
19,19,0,-19,9,9,-48,-53,-78,-82,-53,-151
19,19,0,-19,9,9,-48,-53,-78,-73,-53,-151
29,19,-9,-24,19,4,-48,-53,-73,-73,-53,-146
29,9,-19,-19,24,-4,-48,-53,-73,-78,-53,-146
19,0,-19,-9,19,-9,-58,-58,-82,-82,-63,-156
19,0,-19,-9,19,-9,-63,-63,-87,-87,-63,-161
19,4,-14,-12,17,-4,-63,-68,-92,-92,-63,-161
9,19,9,-14,0,14,-63,-73,-87,-92,-53,-161
19,24,4,-21,7,14,-58,-68,-82,-87,-43,-146
9,24,14,-17,-2,19,-58,-68,-82,-82,-48,-146
9,24,14,-17,-2,19,-53,-63,-78,-78,-48,-141
9,29,19,-19,-4,24,-58,-63,-78,-73,-48,-141
24,29,4,-26,9,17,-68,-73,-97,-97,-58,-151
43,29,-14,-36,29,7,-68,-78,-97,-97,-58,-151
34,29,-4,-31,19,12,-68,-78,-97,-97,-58,-151
29,29,0,-29,14,14,-68,-73,-87,-97,-53,-151
24,19,-4,-21,14,7,-53,-68,-87,-87,-53,-136
24,29,4,-26,9,17,-53,-63,-87,-87,-48,-136
19,29,9,-24,4,19,-53,-58,-87,-87,-48,-141
14,19,4,-17,4,12,-53,-58,-87,-87,-48,-141
14,14,0,-14,7,7,-63,-68,-92,-87,-58,-151
14,14,0,-14,7,7,-63,-63,-92,-92,-58,-151
14,14,0,-14,7,7,-63,-63,-92,-92,-58,-151
14,14,0,-14,7,7,-63,-58,-92,-92,-58,-151
24,34,9,-29,7,21,-48,-53,-82,-78,-53,-141
24,39,14,-31,4,26,-39,-53,-78,-78,-48,-141
29,53,24,-41,2,39,-34,-48,-73,-78,-43,-141
34,58,24,-46,4,41,-29,-43,-68,-73,-39,-141
34,24,-9,-29,21,7,-43,-58,-82,-87,-53,-146
29,34,4,-31,12,19,-48,-63,-87,-92,-58,-146
4,24,19,-14,-7,21,-53,-68,-92,-97,-63,-151
-19,14,34,2,-26,24,-53,-73,-97,-102,-68,-156
-9,34,43,-12,-26,39,-48,-63,-87,-92,-63,-146
-4,43,48,-19,-26,46,-39,-58,-82,-92,-53,-141
0,53,53,-26,-26,53,-34,-53,-78,-92,-48,-141
4,58,53,-31,-24,56,-34,-53,-73,-92,-48,-141
14,48,34,-31,-9,41,-24,-39,-63,-73,-39,-141
19,48,29,-34,-4,39,-39,-58,-73,-82,-48,-151
24,43,19,-34,2,31,-34,-43,-58,-68,-39,-141
19,39,19,-29,0,29,-58,-58,-78,-78,-48,-156
19,53,34,-36,-7,43,-53,-53,-63,-68,-34,-151
19,58,39,-39,-9,48,-48,-48,-58,-68,-29,-146
19,63,43,-41,-12,53,-43,-43,-53,-68,-24,-141
19,68,48,-43,-14,58,-39,-39,-48,-68,-19,-136
24,68,43,-46,-9,56,-39,-48,-53,-68,-29,-136
29,68,39,-48,-4,53,-39,-43,-53,-68,-29,-141
24,68,43,-46,-9,56,-43,-43,-63,-68,-29,-141
9,43,34,-26,-12,39,-43,-43,-63,-68,-39,-146
-9,34,43,-12,-26,39,-34,-39,-58,-68,-34,-136
4,34,29,-19,-12,31,-48,-39,-58,-68,-29,-141
19,34,14,-26,2,24,-58,-43,-58,-63,-24,-141
24,58,34,-41,-4,46,-63,-43,-53,-58,-14,-136
29,68,39,-48,-4,53,-63,-43,-58,-58,-14,-141
34,68,34,-51,0,51,-78,-53,-68,-63,-19,-141
24,63,39,-43,-7,51,-82,-63,-73,-73,-29,-146
29,58,29,-43,0,43,-82,-78,-82,-87,-34,-156
29,53,24,-41,2,39,-97,-102,-87,-102,-43,-161
34,53,19,-43,7,36,-117,-117,-112,-117,-63,-170
34,53,19,-43,7,36,-122,-131,-126,-122,-68,-170
34,53,19,-43,7,36,-131,-131,-136,-126,-68,-170
39,48,9,-43,14,29,-122,-122,-126,-117,-68,-170
48,48,0,-48,24,24,-117,-107,-112,-107,-63,-156
48,48,0,-48,24,24,-112,-92,-102,-102,-53,-156
43,43,0,-43,21,21,-107,-92,-97,-97,-48,-151
39,24,-14,-31,26,4,-107,-92,-97,-107,-58,-156
39,19,-19,-29,29,0,-107,-92,-102,-112,-58,-170
43,19,-24,-31,34,-2,-107,-92,-102,-112,-63,-175
43,19,-24,-31,34,-2,-102,-92,-102,-112,-63,-180
34,0,-34,-17,34,-17,-112,-102,-107,-122,-63,-180
24,14,-9,-19,17,2,-112,-97,-107,-122,-63,-180
19,14,-4,-17,12,4,-107,-97,-112,-117,-63,-170
9,14,4,-12,2,9,-102,-97,-112,-112,-53,-170
4,9,4,-7,0,7,-97,-87,-102,-112,-43,-170
-4,-4,0,4,-2,-2,-97,-87,-107,-112,-48,-170
-24,-9,14,17,-19,2,-97,-87,-107,-117,-58,-185
-24,-14,9,19,-17,-2,-97,-87,-107,-122,-63,-185
-29,-9,19,19,-24,4,-87,-97,-107,-117,-53,-175
-34,-9,24,21,-29,7,-87,-92,-107,-117,-53,-175
-43,-9,34,26,-39,12,-82,-92,-112,-112,-53,-175
-53,-14,39,34,-46,12,-82,-97,-112,-112,-68,-190
-58,-48,9,53,-34,-19,-87,-117,-122,-136,-87,-204
-68,-63,4,65,-36,-29,-97,-122,-136,-141,-92,-219
-82,-68,14,75,-48,-26,-102,-126,-141,-151,-107,-224
-73,-73,0,73,-36,-36,-107,-126,-146,-156,-112,-229
-73,-68,4,70,-39,-31,-92,-126,-146,-146,-112,-224
-73,-53,19,63,-46,-17,-92,-126,-146,-146,-112,-219
-73,-48,24,61,-48,-12,-87,-117,-146,-146,-107,-214
-73,-43,29,58,-51,-7,-78,-117,-141,-141,-107,-204
-73,-48,24,61,-48,-12,-82,-117,-141,-146,-97,-209
-73,-63,9,68,-41,-26,-92,-117,-141,-146,-97,-209
-73,-68,4,70,-39,-31,-102,-117,-146,-156,-102,-214
-73,-73,0,73,-36,-36,-107,-122,-146,-156,-102,-214
-78,-53,24,65,-51,-14,-97,-117,-136,-146,-107,-204
-82,-48,34,65,-58,-7,-92,-112,-136,-156,-107,-204
-92,-43,48,68,-70,2,-87,-107,-136,-141,-102,-204
-82,-34,48,58,-65,7,-73,-97,-131,-141,-97,-204
-78,-43,34,61,-56,-4,-82,-107,-136,-151,-107,-214
-82,-63,19,73,-51,-21,-87,-107,-141,-151,-112,-214
-78,-63,14,70,-46,-24,-87,-107,-151,-156,-112,-214
-68,-63,4,65,-36,-29,-87,-107,-156,-161,-112,-214
-78,-48,29,63,-53,-9,-87,-107,-151,-151,-107,-204
-68,-43,24,56,-46,-9,-87,-107,-146,-151,-107,-204
-68,-39,29,53,-48,-4,-87,-107,-136,-151,-102,-204
-73,-34,39,53,-56,2,-82,-107,-131,-146,-92,-204
-87,-53,34,70,-61,-9,-92,-112,-136,-151,-97,-214
-92,-53,39,73,-65,-7,-92,-117,-141,-156,-102,-214
-112,-78,34,95,-73,-21,-92,-122,-146,-161,-107,-214
-117,-107,9,112,-63,-48,-97,-126,-156,-170,-112,-219
-126,-87,39,107,-82,-24,-97,-117,-156,-175,-112,-229
-122,-87,34,104,-78,-26,-92,-117,-151,-175,-112,-229
-122,-82,39,102,-80,-21,-92,-117,-151,-170,-112,-224
-122,-78,43,100,-82,-17,-87,-112,-151,-165,-112,-219
-151,-92,58,122,-104,-17,-117,-131,-170,-190,-131,-239
-122,-102,19,112,-70,-41,-97,-112,-151,-170,-112,-229
-112,-122,-9,117,-51,-65,-107,-122,-156,-170,-122,-239
-122,-122,0,122,-61,-61,-87,-102,-146,-175,-122,-248
-112,-112,0,112,-56,-56,-53,-63,-122,-156,-112,-234
-131,-92,39,112,-85,-26,-19,-39,-107,-151,-107,-244
-161,-92,68,126,-114,-12,19,9,-63,-122,-87,-229
-195,-102,92,148,-143,-4,48,73,-24,-92,-63,-214
-185,-63,122,124,-153,29,58,107,9,-68,-58,-209
-156,-19,136,87,-146,58,87,141,73,-14,-9,-170
-146,-4,141,75,-143,68,117,180,126,43,43,-131
-146,24,170,61,-158,97,141,248,204,117,117,-73
-107,43,151,31,-129,97,156,346,287,204,204,0
-43,63,107,-9,-75,85,122,390,326,278,283,58
14,102,87,-58,-36,95,58,400,361,356,385,141
97,131,34,-114,31,82,-24,380,390,448,507,239
195,170,-24,-183,109,73,-161,317,390,512,600,336
307,273,-34,-290,170,119,-278,263,409,590,727,453
390,326,-63,-358,226,131,-356,204,409,663,829,541
458,366,-92,-412,275,136,-463,112,356,663,873,590
561,429,-131,-495,346,148,-595,-14,278,658,907,653
639,458,-180,-549,409,139,-727,-117,214,649,936,692
668,468,-200,-568,434,134,-849,-224,131,610,927,692
732,409,-322,-570,527,43,-971,-361,-24,488,839,624
741,307,-434,-524,588,-63,-1083,-561,-273,258,624,458
697,200,-497,-448,597,-148,-1146,-766,-536,-24,361,239
673,78,-595,-375,634,-258,-1171,-922,-751,-278,107,34
629,-43,-673,-292,651,-358,-1185,-1073,-932,-492,-117,-141
541,-146,-688,-197,614,-417,-1176,-1210,-1083,-692,-326,-302
439,-253,-692,-92,566,-473,-1141,-1337,-1205,-878,-536,-473
307,-297,-605,-4,456,-451,-1093,-1459,-1322,-1044,-727,-600
180,-331,-512,75,346,-422,-1010,-1551,-1405,-1151,-844,-678
78,-400,-478,161,278,-439,-956,-1537,-1405,-1180,-893,-727
39,-424,-463,192,251,-444,-907,-1429,-1351,-1151,-888,-756
9,-424,-434,207,222,-429,-834,-1337,-1288,-1112,-868,-756
-24,-473,-448,248,212,-461,-800,-1302,-1268,-1107,-878,-771
-63,-478,-414,270,175,-446,-741,-1244,-1205,-1068,-858,-775
-82,-429,-346,256,131,-387,-653,-1112,-1078,-971,-785,-717
-126,-351,-224,239,48,-287,-575,-995,-961,-868,-707,-653
-175,-244,-68,209,-53,-156,-492,-888,-834,-761,-610,-575
-200,-214,-14,207,-92,-114,-414,-780,-732,-658,-522,-507
-224,-224,0,224,-112,-112,-385,-707,-678,-619,-488,-492
-214,-200,14,207,-114,-92,-356,-634,-614,-561,-448,-463
-185,-175,9,180,-97,-82,-292,-507,-522,-473,-375,-414
-165,-161,4,163,-85,-78,-229,-385,-424,-395,-322,-380
-136,-131,4,134,-70,-63,-175,-273,-317,-317,-258,-336
-112,-102,9,107,-61,-46,-126,-170,-234,-253,-195,-292
-146,-82,63,114,-104,-9,-102,-117,-180,-209,-156,-273
-156,-82,73,119,-114,-4,-78,-78,-151,-170,-122,-248
-151,-102,48,126,-100,-26,-92,-92,-156,-165,-122,-248
-156,-107,48,131,-102,-29,-97,-97,-165,-175,-126,-248
-146,-107,39,126,-92,-34,-87,-87,-141,-165,-117,-234
-136,-117,19,126,-78,-48,-82,-68,-131,-161,-117,-244
-136,-102,34,119,-85,-34,-73,-48,-112,-141,-107,-244
-141,-92,48,117,-95,-21,-53,-24,-82,-117,-92,-234
-146,-92,53,119,-100,-19,-48,-4,-63,-107,-78,-229
-151,-92,58,122,-104,-17,-39,4,-48,-97,-68,-219
-151,-92,58,122,-104,-17,-24,19,-39,-82,-53,-190
-141,-82,58,112,-100,-12,-39,19,-43,-87,-48,-185
-141,-68,73,104,-107,2,-39,4,-48,-87,-53,-195
-141,-73,68,107,-104,-2,-43,-4,-53,-92,-63,-209
-146,-87,58,117,-102,-14,-39,-4,-63,-97,-73,-224
-141,-73,68,107,-104,-2,-34,9,-39,-82,-58,-214
-131,-68,63,100,-97,-2,-29,29,-24,-73,-48,-209
-122,-63,58,92,-90,-2,-19,43,-9,-53,-34,-190
-97,-48,48,73,-73,0,-14,53,0,-48,-19,-180
-117,-53,63,85,-90,4,-29,48,-14,-39,-9,-175
-126,-48,78,87,-102,14,-34,39,-24,-48,-19,-180
-136,-68,68,102,-102,0,-39,29,-34,-63,-39,-185
-156,-87,68,122,-112,-9,-43,24,-43,-73,-48,-190
-151,-82,68,117,-109,-7,-29,39,-24,-63,-48,-180
-151,-73,78,112,-114,2,-24,48,-4,-53,-39,-175
-146,-58,87,102,-117,14,-14,73,9,-29,-24,-170
-141,-43,97,92,-119,26,-9,87,29,-19,-9,-161
-136,-39,97,87,-117,29,-14,78,19,-24,-14,-161
-141,-48,92,95,-117,21,-19,73,9,-29,-9,-161
-146,-58,87,102,-117,14,-24,63,0,-34,-14,-161
-146,-78,68,112,-107,-4,-29,58,-4,-39,-19,-161
-141,-63,78,102,-109,7,-19,73,19,-29,-14,-151
-141,-58,82,100,-112,12,-19,87,24,-24,-9,-151
-146,-53,92,100,-119,19,-4,107,43,-9,-4,-146
-146,-43,102,95,-124,29,-4,126,58,0,14,-141
-136,-39,97,87,-117,29,-4,126,63,4,9,-146
-126,-29,97,78,-112,34,-4,136,68,19,24,-136
-122,-19,102,70,-112,41,-9,141,63,14,24,-136
-117,-29,87,73,-102,29,-9,141,63,9,24,-122
-126,-29,97,78,-112,34,0,146,68,29,29,-112
-131,-39,92,85,-112,26,-9,146,68,29,34,-122
-131,-39,92,85,-112,26,-9,161,87,29,43,-122
-136,-29,107,82,-122,39,-9,180,102,39,63,-112
-126,-14,112,70,-119,48,-14,185,107,43,68,-112
-107,-4,102,56,-104,48,-9,200,112,53,73,-102
-97,0,97,48,-97,48,0,209,112,58,78,-92
-102,0,102,51,-102,51,0,219,117,68,87,-92
-112,4,117,53,-114,61,9,239,131,82,97,-87
-107,9,117,48,-112,63,14,248,146,92,102,-82
-97,14,112,41,-104,63,24,263,165,107,112,-78
-92,19,112,36,-102,65,29,278,190,122,117,-63
-92,14,107,39,-100,61,24,292,195,126,126,-58
-87,19,107,34,-97,63,29,312,204,136,146,-48
-78,34,112,21,-95,73,24,322,214,146,151,-48
-68,29,97,19,-82,63,24,326,219,151,156,-43
-53,34,87,9,-70,61,43,361,234,180,175,-29
-48,39,87,4,-68,63,43,375,248,185,180,-29
-34,48,82,-7,-58,65,43,400,283,204,195,-19
-24,68,92,-21,-58,80,43,419,302,214,204,-14
-34,58,92,-12,-63,75,43,434,317,224,219,-9
-34,73,107,-19,-70,90,53,458,341,244,234,0
-24,87,112,-31,-68,100,63,483,351,268,253,14
-14,92,107,-39,-61,100,68,502,366,283,268,29
-4,102,107,-48,-56,104,82,536,395,302,287,48
0,102,102,-51,-51,102,82,551,405,317,302,58
9,102,92,-56,-41,97,82,566,414,331,317,68
19,112,92,-65,-36,102,87,590,444,356,351,87
24,126,102,-75,-39,114,82,614,453,375,361,97
43,141,97,-92,-26,119,87,629,473,395,375,112
63,165,102,-114,-19,134,97,649,492,409,390,126
68,170,102,-119,-17,136,97,658,502,429,395,141
73,156,82,-114,-4,119,97,658,497,429,405,141
73,151,78,-112,-2,114,97,668,502,439,419,146
63,146,82,-104,-9,114,92,683,512,444,419,151
58,146,87,-102,-14,117,92,692,527,448,429,161
68,161,92,-114,-12,126,102,707,536,458,448,175
73,170,97,-122,-12,134,97,717,551,468,453,185
82,185,102,-134,-9,143,97,727,566,478,463,195
92,200,107,-146,-7,153,102,741,570,488,473,200
92,200,107,-146,-7,153,102,736,556,478,473,195
107,209,102,-158,2,156,97,727,551,478,473,195
107,200,92,-153,7,146,92,722,551,478,463,190
107,195,87,-151,9,141,87,712,551,478,463,190
112,204,92,-158,9,148,87,722,561,488,478,204
117,204,87,-161,14,146,87,722,561,488,478,204
122,214,92,-168,14,153,82,712,561,488,478,204
122,214,92,-168,14,153,78,702,546,478,473,204
102,204,102,-153,0,153,73,683,527,458,458,190
102,200,97,-151,2,148,73,663,522,453,453,190
112,200,87,-156,12,143,63,658,512,448,453,190
112,195,82,-153,14,139,53,629,492,434,434,180
102,180,78,-141,12,129,48,610,478,414,409,170
87,185,97,-136,-4,141,43,590,463,405,400,161
82,190,107,-136,-12,148,43,570,453,390,390,161
78,190,112,-134,-17,151,43,546,434,380,375,156
73,165,92,-119,-9,129,19,507,395,351,356,136
63,156,92,-109,-14,124,14,468,370,322,336,122
53,136,82,-95,-14,109,9,439,331,297,312,102
34,107,73,-70,-19,90,-4,409,297,258,278,73
24,117,92,-70,-34,104,-4,380,283,248,258,63
19,112,92,-65,-36,102,0,356,268,234,244,48
24,122,97,-73,-36,109,0,341,248,219,229,43
19,131,112,-75,-46,122,4,331,244,209,219,39
9,112,102,-61,-46,107,-19,292,209,175,204,14
0,97,97,-48,-48,97,-19,258,180,151,185,0
-14,78,92,-31,-53,85,-29,224,151,126,156,-14
-19,63,82,-21,-51,73,-43,190,122,97,117,-43
-39,63,102,-12,-70,82,-39,180,117,92,107,-43
-48,68,117,-9,-82,92,-34,165,107,87,107,-48
-58,63,122,-2,-90,92,-34,151,102,73,92,-63
-58,68,126,-4,-92,97,-34,136,82,68,82,-68
-73,43,117,14,-95,80,-48,107,53,39,58,-82
-92,24,117,34,-104,70,-53,82,34,19,39,-102
-97,9,107,43,-102,58,-58,63,19,0,24,-117
-102,-24,78,63,-90,26,-68,43,-4,-24,4,-131
-107,-19,87,63,-97,34,-68,29,-24,-39,-4,-136
-112,-19,92,65,-102,36,-68,19,-34,-48,-14,-136
-122,-19,102,70,-112,41,-68,14,-34,-48,-14,-146
-141,-14,126,78,-134,56,-78,0,-39,-53,-19,-146
-126,-14,112,70,-119,48,-78,-14,-39,-53,-19,-156
-112,-19,92,65,-102,36,-87,-29,-53,-63,-29,-165
-117,-19,97,68,-107,39,-87,-34,-68,-73,-34,-170
-112,-19,92,65,-102,36,-87,-34,-73,-78,-43,-175
-122,-39,82,80,-102,21,-87,-34,-82,-87,-43,-175
-126,-39,87,82,-107,24,-92,-53,-87,-97,-53,-180
-126,-39,87,82,-107,24,-87,-53,-82,-97,-53,-180
-126,-34,92,80,-109,29,-87,-58,-82,-107,-68,-185
-131,-43,87,87,-109,21,-97,-68,-92,-117,-73,-190
-146,-53,92,100,-119,19,-97,-73,-102,-117,-78,-200
-151,-58,92,104,-122,17,-92,-73,-107,-117,-82,-209
-151,-68,82,109,-117,7,-92,-78,-112,-122,-87,-214
-141,-63,78,102,-109,7,-92,-68,-122,-122,-82,-200
-141,-63,78,102,-109,7,-97,-82,-117,-126,-82,-209
-141,-53,87,97,-114,17,-92,-92,-117,-141,-82,-204
-151,-43,107,97,-129,31,-87,-92,-112,-141,-78,-200
-131,-48,82,90,-107,17,-92,-102,-112,-126,-87,-209
-126,-43,82,85,-104,19,-92,-97,-112,-122,-87,-204
-126,-39,87,82,-107,24,-87,-97,-112,-122,-87,-204
-126,-39,87,82,-107,24,-87,-102,-112,-126,-87,-204
-141,-63,78,102,-109,7,-102,-112,-126,-141,-92,-214
-151,-78,73,114,-112,-2,-112,-126,-136,-146,-97,-219
-141,-68,73,104,-107,2,-112,-126,-136,-156,-97,-219
-141,-68,73,104,-107,2,-112,-131,-141,-161,-97,-219
-161,-87,73,124,-117,-7,-112,-126,-141,-170,-107,-219
-165,-92,73,129,-119,-9,-102,-126,-141,-165,-107,-219
-170,-87,82,129,-126,-2,-102,-117,-136,-156,-107,-224
-180,-92,87,136,-134,-2,-102,-117,-136,-156,-107,-229
-180,-102,78,141,-129,-12,-102,-126,-136,-156,-97,-224
-185,-112,73,148,-129,-19,-107,-136,-151,-170,-112,-239
-185,-112,73,148,-129,-19,-107,-136,-151,-170,-112,-234
-170,-102,68,136,-119,-17,-97,-136,-141,-161,-97,-219
-180,-97,82,139,-131,-7,-87,-131,-136,-161,-97,-219
-180,-97,82,139,-131,-7,-87,-126,-136,-161,-97,-219
-175,-92,82,134,-129,-4,-87,-122,-141,-165,-102,-219
-175,-82,92,129,-134,4,-87,-117,-141,-165,-102,-214
-175,-92,82,134,-129,-4,-97,-122,-151,-175,-117,-224
-161,-92,68,126,-114,-12,-97,-131,-156,-185,-122,-234
-161,-92,68,126,-114,-12,-97,-141,-156,-185,-122,-234
-161,-92,68,126,-114,-12,-92,-146,-156,-185,-122,-234
-165,-92,73,129,-119,-9,-92,-131,-151,-190,-122,-224
-170,-92,78,131,-124,-7,-92,-126,-146,-180,-117,-224
-175,-92,82,134,-129,-4,-87,-126,-141,-180,-112,-219
-180,-78,102,129,-141,12,-87,-126,-141,-180,-107,-219
-190,-78,112,134,-151,17,-87,-131,-151,-180,-107,-229
-200,-102,97,151,-148,-2,-87,-136,-156,-185,-112,-229
-200,-112,87,156,-143,-12,-97,-136,-156,-195,-112,-234
-185,-117,68,151,-126,-24,-97,-136,-156,-185,-112,-234
-175,-107,68,141,-122,-19,-92,-126,-151,-185,-112,-229
-185,-107,78,146,-131,-14,-87,-112,-146,-180,-107,-229
-185,-97,87,141,-136,-4,-87,-112,-141,-180,-107,-229
-185,-97,87,141,-136,-4,-87,-117,-141,-180,-112,-224
-180,-107,73,143,-126,-17,-97,-126,-151,-190,-112,-234
-180,-117,63,148,-122,-26,-97,-126,-151,-190,-112,-234
-185,-117,68,151,-126,-24,-107,-131,-151,-195,-112,-239
-195,-117,78,156,-136,-19,-112,-131,-151,-195,-112,-239
-185,-102,82,143,-134,-9,-107,-122,-146,-185,-107,-234
-170,-92,78,131,-124,-7,-97,-112,-136,-175,-97,-224
-161,-78,82,119,-122,2,-92,-102,-122,-161,-87,-214
-156,-68,87,112,-122,9,-87,-92,-117,-156,-82,-209
-161,-68,92,114,-126,12,-82,-92,-122,-156,-92,-200
-151,-63,87,107,-119,12,-82,-97,-122,-156,-92,-200
-156,-78,78,117,-117,0,-82,-97,-122,-161,-92,-200
-175,-82,92,129,-134,4,-92,-107,-122,-161,-92,-200
-161,-73,87,117,-124,7,-92,-97,-122,-151,-82,-190
-136,-68,68,102,-102,0,-92,-97,-122,-151,-78,-190
-131,-58,73,95,-102,7,-92,-97,-117,-151,-78,-190
-131,-48,82,90,-107,17,-87,-82,-107,-131,-68,-175
-136,-58,78,97,-107,9,-92,-92,-107,-141,-78,-185
-141,-63,78,102,-109,7,-92,-92,-117,-146,-82,-190
-146,-68,78,107,-112,4,-92,-97,-117,-151,-87,-195
-151,-68,82,109,-117,7,-97,-102,-117,-151,-87,-195
-146,-58,87,102,-117,14,-92,-87,-112,-146,-68,-185
-141,-53,87,97,-114,17,-92,-82,-107,-141,-63,-180
-136,-43,92,90,-114,24,-87,-78,-102,-136,-58,-175
-117,-39,78,78,-97,19,-78,-73,-97,-131,-53,-170
-122,-48,73,85,-97,12,-82,-78,-102,-136,-58,-175
-126,-48,78,87,-102,14,-87,-82,-107,-131,-63,-180
-122,-48,73,85,-97,12,-92,-87,-107,-136,-68,-180
-126,-58,68,92,-97,4,-97,-92,-112,-146,-73,-185
-126,-48,78,87,-102,14,-102,-82,-107,-136,-63,-180
-126,-48,78,87,-102,14,-102,-82,-107,-136,-63,-180
-126,-43,82,85,-104,19,-97,-82,-107,-136,-63,-175
-136,-29,107,82,-122,39,-92,-82,-97,-131,-53,-170
-122,-34,87,78,-104,26,-102,-92,-107,-136,-58,-175
-126,-43,82,85,-104,19,-107,-97,-112,-141,-68,-185
-122,-53,68,87,-95,7,-107,-97,-112,-146,-73,-190
-117,-58,58,87,-87,0,-117,-102,-117,-151,-78,-200
-126,-78,48,102,-87,-14,-117,-97,-117,-151,-73,-195
-122,-78,43,100,-82,-17,-107,-97,-117,-146,-68,-190
-146,-78,68,112,-107,-4,-97,-92,-117,-141,-63,-185
-165,-78,87,122,-126,4,-87,-82,-107,-136,-53,-180
-156,-87,68,122,-112,-9,-97,-97,-122,-141,-68,-180
-151,-78,73,114,-112,-2,-102,-102,-126,-146,-68,-185
-151,-78,73,114,-112,-2,-107,-107,-131,-151,-73,-195
-151,-87,63,119,-107,-12,-112,-117,-136,-156,-78,-200
-141,-82,58,112,-100,-12,-102,-102,-131,-141,-63,-190
-131,-73,58,102,-95,-7,-92,-92,-122,-141,-58,-180
-122,-63,58,92,-90,-2,-82,-87,-112,-136,-53,-170
-112,-53,58,82,-85,2,-73,-78,-102,-131,-48,-161
-117,-53,63,85,-90,4,-87,-82,-112,-136,-58,-165
-122,-58,63,90,-92,2,-87,-92,-117,-146,-68,-170
-122,-53,68,87,-95,7,-92,-97,-122,-156,-78,-175
-122,-58,63,90,-92,2,-97,-102,-126,-161,-87,-180
-112,-73,39,92,-75,-17,-92,-92,-122,-156,-73,-170
-107,-53,53,80,-80,0,-87,-92,-117,-151,-68,-165
-122,-53,68,87,-95,7,-82,-92,-112,-146,-63,-165
-136,-53,82,95,-109,14,-73,-92,-107,-141,-58,-165
-136,-53,82,95,-109,14,-82,-97,-107,-146,-63,-170
-131,-53,78,92,-104,12,-78,-97,-112,-151,-63,-170
-126,-53,73,90,-100,9,-78,-97,-117,-156,-68,-175
-122,-58,63,90,-92,2,-82,-102,-122,-161,-78,-180
-131,-53,78,92,-104,12,-78,-97,-117,-146,-73,-175
-126,-39,87,82,-107,24,-68,-97,-112,-141,-68,-170
-122,-29,92,75,-107,31,-48,-82,-102,-131,-53,-156
-122,-24,97,73,-109,36,-53,-82,-97,-126,-48,-151
-126,-24,102,75,-114,39,-29,-53,-68,-107,-29,-131
-117,-34,82,75,-100,24,-58,-73,-92,-136,-48,-151
-78,0,78,39,-78,39,-53,-82,-92,-136,-53,-151
-68,0,68,34,-68,34,-48,-68,-78,-117,-39,-146
-58,4,63,26,-61,34,-48,-68,-78,-117,-29,-136
-58,9,68,24,-63,39,-48,-68,-78,-117,-29,-136
-58,14,73,21,-65,43,-48,-68,-78,-117,-29,-136
-58,19,78,19,-68,48,-48,-68,-78,-117,-29,-136
-68,14,82,26,-75,48,-48,-78,-73,-117,-39,-126
-78,9,87,34,-82,48,-48,-73,-73,-117,-39,-131
-97,4,102,46,-100,53,-53,-73,-82,-117,-39,-131
-126,-24,102,75,-114,39,-53,-73,-82,-117,-48,-136
-131,-34,97,82,-114,31,-43,-68,-73,-112,-39,-136
-112,-34,78,73,-95,21,-58,-68,-78,-117,-39,-141
-92,-34,58,63,-75,12,-68,-73,-82,-117,-39,-141
-82,-9,73,46,-78,31,-73,-73,-82,-117,-34,-136
-82,-9,73,46,-78,31,-82,-73,-87,-126,-43,-131
-82,-9,73,46,-78,31,-97,-82,-97,-131,-48,-131
-97,-14,82,56,-90,34,-102,-92,-102,-141,-58,-136
-97,-19,78,58,-87,29,-102,-107,-112,-156,-63,-146
-87,-29,58,58,-73,14,-117,-131,-117,-161,-63,-161
-73,-24,48,48,-61,12,-136,-146,-141,-175,-82,-170
-63,-19,43,41,-53,12,-141,-161,-156,-180,-87,-170
-53,-14,39,34,-46,12,-151,-161,-165,-185,-87,-170
-53,-24,29,39,-41,2,-151,-170,-170,-195,-97,-190
-48,-19,29,34,-39,4,-146,-156,-161,-185,-92,-175
-53,-14,39,34,-46,12,-141,-141,-156,-180,-82,-175
-63,-14,48,39,-56,17,-136,-141,-156,-175,-78,-170
-63,-34,29,48,-46,-2,-146,-151,-156,-175,-87,-170
-58,-39,19,48,-39,-9,-146,-151,-161,-180,-87,-180
-48,-39,9,43,-29,-14,-146,-151,-161,-180,-92,-180
-43,-39,4,41,-24,-17,-141,-151,-161,-180,-92,-180
-48,-39,9,43,-29,-14,-136,-146,-151,-175,-87,-175
-53,-24,29,39,-41,2,-131,-136,-146,-170,-82,-170
-53,-24,29,39,-41,2,-122,-131,-146,-161,-78,-156
-58,-24,34,41,-46,4,-112,-126,-141,-151,-63,-151
-73,-34,39,53,-56,2,-117,-136,-151,-156,-68,-156
-82,-53,29,68,-56,-12,-117,-136,-156,-161,-78,-161
-102,-63,39,82,-70,-12,-117,-136,-156,-170,-92,-180
-102,-73,29,87,-65,-21,-117,-136,-156,-180,-102,-185
-92,-58,34,75,-63,-12,-92,-131,-151,-165,-87,-175
-82,-48,34,65,-58,-7,-87,-122,-146,-165,-82,-175
-78,-39,39,58,-58,0,-78,-117,-146,-161,-78,-175
-73,-34,39,53,-56,2,-73,-117,-141,-161,-87,-190
-92,-68,24,80,-58,-21,-78,-136,-151,-175,-102,-200
-107,-82,24,95,-65,-29,-87,-141,-165,-180,-102,-209
-126,-87,39,107,-82,-24,-92,-146,-170,-190,-112,-209
-122,-92,29,107,-75,-31,-97,-146,-175,-195,-112,-209
-126,-92,34,109,-80,-29,-92,-146,-165,-185,-112,-209
-131,-82,48,107,-90,-17,-92,-146,-165,-185,-112,-209
-136,-82,53,109,-95,-14,-87,-136,-165,-185,-107,-209
-141,-82,58,112,-100,-12,-78,-136,-161,-180,-107,-204
-136,-92,43,114,-90,-24,-78,-146,-170,-180,-117,-204
-131,-102,29,117,-80,-36,-82,-146,-170,-185,-117,-209
-126,-102,24,114,-75,-39,-87,-146,-175,-200,-122,-219
-122,-102,19,112,-70,-41,-87,-151,-175,-204,-122,-224
-131,-97,34,114,-82,-31,-73,-141,-165,-200,-117,-214
-141,-97,43,119,-92,-26,-73,-141,-165,-204,-117,-214
-156,-97,58,126,-107,-19,-73,-141,-165,-185,-112,-214
-151,-92,58,122,-104,-17,-63,-136,-161,-180,-107,-214
-141,-102,39,122,-90,-31,-68,-146,-165,-190,-112,-224
-151,-122,29,136,-90,-46,-78,-146,-170,-190,-122,-224
-151,-122,29,136,-90,-46,-82,-146,-180,-195,-126,-224
-146,-122,24,134,-85,-48,-87,-146,-185,-200,-131,-224
-131,-107,24,119,-78,-41,-78,-131,-175,-190,-122,-209
-117,-92,24,104,-70,-34,-68,-126,-165,-180,-117,-204
-112,-78,34,95,-73,-21,-58,-122,-151,-170,-107,-200
-112,-63,48,87,-80,-7,-43,-117,-141,-156,-92,-195
-131,-87,43,109,-87,-21,-58,-131,-151,-165,-102,-209
-141,-92,48,117,-95,-21,-63,-136,-161,-175,-112,-214
-165,-122,43,143,-104,-39,-68,-141,-170,-185,-122,-219
-175,-156,19,165,-97,-68,-78,-146,-185,-200,-131,-229
-156,-131,24,143,-90,-53,-73,-141,-170,-200,-126,-224
-141,-117,24,129,-82,-46,-63,-136,-161,-195,-122,-219
-131,-97,34,114,-82,-31,-58,-131,-156,-185,-117,-209
-122,-78,43,100,-82,-17,-48,-122,-151,-175,-112,-200
-122,-92,29,107,-75,-31,-39,-122,-151,-170,-102,-190
-131,-73,58,102,-95,-7,-39,-122,-151,-161,-92,-190
-112,-92,19,102,-65,-36,-29,-112,-146,-161,-92,-200
-141,-131,9,136,-75,-61,-39,-122,-165,-175,-122,-219
-180,-131,48,156,-114,-41,-24,-102,-151,-175,-131,-224
-209,-141,68,175,-139,-36,0,-78,-136,-170,-126,-224
-229,-122,107,175,-168,-7,39,-39,-102,-151,-117,-209
-204,-92,112,148,-158,9,97,53,-24,-92,-73,-175
-195,-92,102,143,-148,4,136,117,29,-58,-39,-170
-195,-48,146,122,-170,48,165,141,73,-14,-9,-131
-185,4,190,90,-187,97,204,200,156,63,63,-63
-165,14,180,75,-173,97,209,239,204,126,136,-24
-126,34,161,46,-143,97,175,268,239,175,195,29
-82,53,136,14,-109,95,112,283,268,248,273,97
-34,82,117,-24,-75,100,19,273,292,307,356,161
68,151,82,-109,-7,117,-63,292,361,409,468,258
195,190,-4,-192,100,92,-180,297,400,512,590,356
287,244,-43,-265,165,100,-326,244,380,561,678,444
380,326,-53,-353,217,136,-424,204,380,634,790,551
439,356,-82,-397,261,136,-522,141,366,683,863,619
492,390,-102,-441,297,143,-653,34,297,668,888,653
580,439,-141,-509,361,148,-766,-39,244,678,936,702
678,439,-239,-558,458,100,-888,-107,161,649,936,712
771,409,-361,-590,566,24,-1029,-234,14,536,849,653
810,317,-492,-563,651,-87,-1102,-375,-165,356,702,527
775,151,-624,-463,700,-236,-1176,-551,-419,73,429,307
761,-9,-771,-375,766,-390,-1239,-766,-692,-239,126,63
717,-141,-858,-287,788,-500,-1273,-956,-912,-473,-107,-131
610,-273,-883,-168,746,-578,-1263,-1122,-1073,-683,-317,-292
497,-361,-858,-68,678,-610,-1229,-1249,-1224,-878,-536,-453
395,-424,-819,14,607,-622,-1151,-1371,-1342,-1034,-707,-580
248,-448,-697,100,473,-573,-1088,-1522,-1444,-1161,-834,-658
146,-458,-605,156,375,-531,-1015,-1566,-1444,-1190,-893,-688
97,-492,-590,197,344,-541,-936,-1478,-1381,-1161,-888,-697
39,-502,-541,231,290,-522,-873,-1385,-1317,-1132,-878,-717
14,-512,-527,248,270,-519,-800,-1332,-1268,-1088,-849,-712
14,-488,-502,236,258,-495,-751,-1244,-1195,-1039,-810,-688
-4,-400,-395,202,195,-397,-683,-1132,-1088,-951,-746,-649
-68,-351,-283,209,107,-317,-575,-1015,-961,-839,-678,-585
-117,-292,-175,204,29,-234,-473,-897,-844,-741,-610,-536
-122,-195,-73,158,-24,-134,-375,-741,-712,-619,-502,-448
-117,-165,-48,141,-34,-107,-317,-629,-610,-531,-429,-385
-136,-180,-43,158,-46,-112,-287,-566,-556,-492,-390,-366
-136,-175,-39,156,-48,-107,-244,-468,-463,-414,-326,-326
-136,-170,-34,153,-51,-102,-190,-366,-385,-346,-263,-283
-126,-131,-4,129,-61,-68,-136,-273,-317,-278,-229,-258
-112,-92,19,102,-65,-36,-68,-180,-224,-204,-175,-224
-78,-63,14,70,-46,-24,-34,-117,-170,-151,-136,-204
-97,-53,43,75,-70,-4,-29,-97,-151,-131,-122,-180
-161,-112,48,136,-104,-31,-24,-92,-136,-117,-112,-170
-156,-136,19,146,-87,-58,-29,-97,-146,-126,-117,-180
-107,-97,9,102,-58,-43,-19,-97,-141,-117,-107,-165
-117,-107,9,112,-63,-48,-4,-78,-122,-102,-97,-156
-165,-141,24,153,-95,-58,-4,-78,-122,-112,-107,-185
-156,-122,34,139,-95,-43,4,-53,-97,-87,-97,-175
-156,-112,43,134,-100,-34,9,-34,-82,-78,-87,-180
-156,-102,53,129,-104,-24,19,-24,-73,-68,-82,-180
-151,-92,58,122,-104,-17,34,-9,-68,-53,-73,-161
-136,-87,48,112,-92,-19,29,0,-73,-53,-58,-136
-131,-78,53,104,-92,-12,29,-4,-68,-48,-53,-136
-126,-87,39,107,-82,-24,24,-4,-63,-48,-53,-141
-126,-107,19,117,-73,-43,29,4,-63,-48,-53,-146
-131,-97,34,114,-82,-31,34,19,-43,-43,-53,-141
-131,-87,43,109,-87,-21,39,29,-34,-34,-48,-141
-131,-78,53,104,-92,-12,48,34,-24,-14,-39,-126
-117,-58,58,87,-87,0,53,34,-19,-9,-29,-122
-117,-53,63,85,-90,4,53,29,-24,4,-19,-112
-117,-48,68,82,-92,9,53,29,-24,0,-19,-112
-117,-68,48,92,-82,-9,53,29,-24,-9,-29,-112
-126,-87,39,107,-82,-24,53,34,-24,-14,-29,-112
-126,-87,39,107,-82,-24,63,43,-24,-4,-29,-126
-131,-82,48,107,-90,-17,63,48,-14,-4,-29,-126
-131,-73,58,102,-95,-7,68,68,-9,9,-24,-126
-131,-63,68,97,-100,2,68,78,0,9,-19,-122
-112,-48,63,80,-87,7,68,87,4,29,-9,-107
-112,-48,63,80,-87,7,68,92,9,29,0,-102
-112,-48,63,80,-87,7,68,92,14,29,0,-97
-107,-58,48,82,-78,-4,68,97,24,29,0,-92
-102,-58,43,80,-73,-7,58,102,29,34,0,-97
-102,-58,43,80,-73,-7,58,107,24,34,0,-102
-107,-58,48,82,-78,-4,73,117,34,43,0,-102
-107,-53,53,80,-80,0,73,126,39,48,14,-102
-97,-29,68,63,-82,19,87,141,58,58,29,-87
-87,-19,68,53,-78,24,92,156,68,78,43,-78
-82,-9,73,46,-78,31,92,165,68,78,43,-78
-78,-19,58,48,-68,19,97,170,73,78,43,-63
-87,-39,48,63,-68,4,102,175,68,78,34,-68
-92,-48,43,70,-68,-2,87,175,68,78,34,-82
-92,-48,43,70,-68,-2,82,190,87,78,39,-87
-97,-39,58,68,-78,9,78,209,102,87,53,-82
-97,-19,78,58,-87,29,92,214,112,112,63,-63
-87,-4,82,46,-85,39,97,229,122,122,73,-53
-87,4,92,41,-90,48,107,239,126,126,82,-43
-102,9,112,46,-107,61,107,248,136,136,97,-43
-87,9,97,39,-92,53,112,278,146,146,97,-43
-78,9,87,34,-82,48,112,287,156,151,102,-43
-63,9,73,26,-68,41,117,302,170,161,112,-43
-53,9,63,21,-58,36,117,317,190,170,117,-34
-68,14,82,26,-75,48,126,326,200,185,126,-34
-68,19,87,24,-78,53,136,351,214,195,146,-19
-63,34,97,14,-80,65,136,366,229,204,151,-14
-58,29,87,14,-73,58,141,375,239,209,156,-4
-58,19,78,19,-68,48,151,409,258,229,175,9
-58,9,68,24,-63,39,151,424,268,234,180,9
-48,4,53,21,-51,29,151,448,297,253,195,19
-43,9,53,17,-48,31,151,468,312,263,204,24
-34,14,48,9,-41,31,161,492,322,273,219,39
-34,34,68,0,-51,51,170,517,351,292,234,48
-24,53,78,-14,-51,65,180,541,366,317,253,63
-14,63,78,-24,-46,70,185,561,385,331,268,78
0,78,78,-39,-39,78,200,595,414,351,292,102
9,82,73,-46,-31,78,200,610,424,366,302,107
24,87,63,-56,-19,75,200,624,434,380,312,112
39,102,63,-70,-12,82,204,649,463,405,341,126
53,126,73,-90,-9,100,214,688,492,434,366,151
73,151,78,-112,-2,114,224,707,512,453,385,170
92,185,92,-139,0,139,239,732,531,468,405,190
97,200,102,-148,-2,151,244,746,541,488,414,209
92,180,87,-136,2,134,239,751,536,483,414,209
92,170,78,-131,7,124,234,756,541,497,429,214
82,161,78,-122,2,119,224,766,551,507,429,219
78,156,78,-117,0,117,219,771,566,517,439,229
73,165,92,-119,-9,129,229,790,570,517,448,234
73,170,97,-122,-12,134,224,795,580,527,453,244
78,180,102,-129,-12,141,224,800,590,536,463,253
82,190,107,-136,-12,148,229,810,590,546,473,258
82,190,107,-136,-12,148,224,800,575,536,473,253
97,190,92,-143,2,141,214,795,570,536,473,253
97,170,73,-134,12,122,204,795,570,536,463,248
97,156,58,-126,19,107,195,790,570,536,463,248
112,170,58,-141,26,114,200,795,580,541,473,263
126,185,58,-156,34,122,204,800,580,546,478,263
141,209,68,-175,36,139,204,795,580,551,483,263
151,224,73,-187,39,148,204,790,566,546,483,263
146,234,87,-190,29,161,190,775,556,527,468,248
151,229,78,-190,36,153,190,751,551,522,463,248
165,229,63,-197,51,146,180,741,541,517,463,248
170,224,53,-197,58,139,170,707,522,502,444,239
146,195,48,-170,48,122,165,688,497,492,439,229
126,195,68,-161,29,131,161,668,483,483,429,219
117,195,78,-156,19,136,161,649,473,468,419,219
107,190,82,-148,12,136,161,624,453,458,405,214
102,170,68,-136,17,119,141,590,409,429,385,190
92,165,73,-129,9,119,131,546,390,400,366,180
82,151,68,-117,7,109,122,512,356,375,341,165
63,126,63,-95,0,95,102,478,326,336,307,141
63,136,73,-100,-4,104,92,448,307,317,287,136
58,131,73,-95,-7,102,97,414,287,302,273,117
63,141,78,-102,-7,109,97,390,263,287,258,107
58,151,92,-104,-17,122,102,370,253,278,248,97
68,126,58,-97,4,92,73,326,219,248,224,73
58,107,48,-82,4,78,68,287,190,219,204,58
43,82,39,-63,2,61,53,248,161,190,175,43
39,63,24,-51,7,43,34,209,131,156,136,14
14,48,34,-31,-9,41,43,185,112,146,122,4
0,48,48,-24,-24,48,43,165,97,136,117,0
-14,39,53,-12,-34,46,39,146,87,117,97,-14
-19,39,58,-9,-39,48,34,126,63,107,82,-19
-43,14,58,14,-51,36,24,102,39,87,68,-34
-63,-4,58,34,-61,26,24,82,24,68,48,-53
-68,-19,48,43,-58,14,24,68,14,48,34,-68
-73,-53,19,63,-46,-17,19,53,-4,24,14,-82
-78,-43,34,61,-56,-4,14,29,-24,19,4,-87
-73,-39,34,56,-53,-2,19,19,-34,9,-4,-87
-73,-34,39,53,-56,2,24,14,-34,9,-4,-97
-82,-24,58,53,-70,17,19,0,-39,4,-9,-97
-73,-14,58,43,-65,21,9,-14,-39,-4,-19,-97
-63,-19,43,41,-53,12,0,-29,-53,-14,-29,-107
-73,-19,53,46,-63,17,0,-34,-68,-24,-34,-112
-73,-19,53,46,-63,17,0,-34,-73,-29,-43,-117
-92,-53,39,73,-65,-7,-4,-53,-97,-48,-63,-136
-97,-58,39,78,-68,-9,-14,-73,-107,-58,-73,-141
-97,-63,34,80,-65,-14,-14,-73,-107,-58,-73,-141
-97,-63,34,80,-65,-14,-19,-78,-112,-68,-87,-146
-87,-63,24,75,-56,-19,-14,-82,-112,-58,-82,-141
-97,-63,34,80,-65,-14,-9,-82,-112,-58,-78,-141
-97,-58,39,78,-68,-9,0,-78,-107,-58,-73,-141
-92,-58,34,75,-63,-12,4,-78,-102,-63,-68,-136
-107,-78,29,92,-68,-24,-9,-92,-122,-82,-82,-141
-112,-92,19,102,-65,-36,-19,-112,-126,-87,-92,-161
-117,-97,19,107,-68,-39,-19,-126,-136,-102,-102,-165
-131,-102,29,117,-80,-36,-19,-131,-141,-102,-107,-170
-122,-87,34,104,-78,-26,-14,-126,-131,-87,-102,-165
-117,-82,34,100,-75,-24,-14,-117,-131,-82,-97,-156
-117,-78,39,97,-78,-19,-9,-112,-131,-82,-92,-151
-117,-78,39,97,-78,-19,-9,-112,-131,-87,-87,-146
-117,-92,24,104,-70,-34,-14,-122,-146,-92,-102,-165
-122,-107,14,114,-68,-46,-24,-136,-156,-97,-107,-170
-107,-97,9,102,-58,-43,-24,-136,-156,-107,-107,-170
-102,-97,4,100,-53,-46,-24,-141,-161,-112,-107,-170
-112,-92,19,102,-65,-36,-14,-141,-151,-112,-107,-165
-117,-92,24,104,-70,-34,-4,-136,-151,-107,-107,-161
-122,-82,39,102,-80,-21,-4,-122,-146,-97,-107,-161
-131,-82,48,107,-90,-17,-4,-117,-146,-97,-107,-161
-131,-92,39,112,-85,-26,-14,-126,-146,-97,-107,-151
-126,-102,24,114,-75,-39,-19,-136,-161,-112,-122,-170
-117,-102,14,109,-65,-43,-19,-136,-161,-112,-122,-170
-92,-92,0,92,-46,-46,-9,-136,-151,-102,-107,-161
-102,-97,4,100,-53,-46,-19,-126,-156,-112,-107,-170
-112,-107,4,109,-58,-51,-19,-126,-156,-112,-107,-170
-117,-112,4,114,-61,-53,-19,-126,-161,-117,-112,-170
